,每日PnL,净值,资金占用比例,杠杆倍数
2013-01-04,0.0,1.0,0.0,0.0
2013-01-07,0.0,1.0,0.0,0.0
2013-01-08,0.0,1.0,0.0,0.0
2013-01-09,0.0,1.0,0.0,0.0
2013-01-10,0.0,1.0,0.0,0.0
2013-01-11,0.0,1.0,0.0,0.0
2013-01-14,0.0,1.0,0.0,0.0
2013-01-15,0.0,1.0,0.0,0.0
2013-01-16,0.0,1.0,0.0,0.0
2013-01-17,0.0,1.0,0.0,0.0
2013-01-18,0.0,1.0,0.0,0.0
2013-01-21,0.0,1.0,0.0,0.0
2013-01-22,0.0,1.0,0.0,0.0
2013-01-23,0.0,1.0,0.0,0.0
2013-01-24,0.0,1.0,0.0,0.0
2013-01-25,0.0,1.0,0.0,0.0
2013-01-28,0.0,1.0,0.0,0.0
2013-01-29,0.0,1.0,0.0,0.0
2013-01-30,0.0,1.0,0.0,0.0
2013-01-31,0.0,1.0,0.0,0.0
2013-02-01,0.0,1.0,0.0,0.0
2013-02-04,0.0,1.0,0.0,0.0
2013-02-05,0.0,1.0,0.0,0.0
2013-02-06,0.0,1.0,0.0,0.0
2013-02-07,0.0,1.0,0.0,0.0
2013-02-08,0.0,1.0,0.0,0.0
2013-02-18,0.0,1.0,0.0,0.0
2013-02-19,0.0,1.0,0.0,0.0
2013-02-20,0.0,1.0,0.0,0.0
2013-02-21,0.0,1.0,0.0,0.0
2013-02-22,0.0,1.0,0.0,0.0
2013-02-25,0.0,1.0,0.0,0.0
2013-02-26,0.0,1.0,0.0,0.0
2013-02-27,0.0,1.0,0.0,0.0
2013-02-28,0.0,1.0,0.0,0.0
2013-03-01,0.0,1.0,0.0,0.0
2013-03-04,0.0,1.0,0.0,0.0
2013-03-05,0.0,1.0,0.0,0.0
2013-03-06,0.0,1.0,0.0,0.0
2013-03-07,0.0,1.0,0.0,0.0
2013-03-08,0.0,1.0,0.0,0.0
2013-03-11,0.0,1.0,0.0,0.0
2013-03-12,0.0,1.0,0.0,0.0
2013-03-13,0.0,1.0,0.0,0.0
2013-03-14,0.0,1.0,0.0,0.0
2013-03-15,0.0,1.0,0.0,0.0
2013-03-18,0.0,1.0,0.0,0.0
2013-03-19,0.0,1.0,0.0,0.0
2013-03-20,0.0,1.0,0.0,0.0
2013-03-21,0.0,1.0,0.0,0.0
2013-03-22,0.0,1.0,0.0,0.0
2013-03-25,0.0,1.0,0.0,0.0
2013-03-26,0.0,1.0,0.0,0.0
2013-03-27,0.0,1.0,0.0,0.0
2013-03-28,0.0,1.0,0.0,0.0
2013-03-29,0.0,1.0,0.0,0.0
2013-04-01,0.0,1.0,0.0,0.0
2013-04-02,0.0,1.0,0.0,0.0
2013-04-03,0.0,1.0,0.0,0.0
2013-04-08,0.0,1.0,0.0,0.0
2013-04-09,0.0,1.0,0.0,0.0
2013-04-10,0.0,1.0,0.0,0.0
2013-04-11,0.0,1.0,0.0,0.0
2013-04-12,0.0,1.0,0.0,0.0
2013-04-15,0.0,1.0,0.0,0.0
2013-04-16,0.0,1.0,0.0,0.0
2013-04-17,0.0,1.0,0.0,0.0
2013-04-18,0.0,1.0,0.0,0.0
2013-04-19,0.0,1.0,0.0,0.0
2013-04-22,0.0,1.0,0.0,0.0
2013-04-23,0.0,1.0,0.0,0.0
2013-04-24,0.0,1.0,0.0,0.0
2013-04-25,0.0,1.0,0.0,0.0
2013-04-26,0.0,1.0,0.0,0.0
2013-05-02,0.0,1.0,0.0,0.0
2013-05-03,0.0,1.0,0.0,0.0
2013-05-06,0.0,1.0,0.0,0.0
2013-05-07,0.0,1.0,0.0,0.0
2013-05-08,0.0,1.0,0.0,0.0
2013-05-09,0.0,1.0,0.0,0.0
2013-05-10,0.0,1.0,0.0,0.0
2013-05-13,0.0,1.0,0.0,0.0
2013-05-14,0.0,1.0,0.0,0.0
2013-05-15,0.0,1.0,0.0,0.0
2013-05-16,0.0,1.0,0.0,0.0
2013-05-17,0.0,1.0,0.0,0.0
2013-05-20,0.0,1.0,0.0,0.0
2013-05-21,0.0,1.0,0.0,0.0
2013-05-22,0.0,1.0,0.0,0.0
2013-05-23,0.0,1.0,0.0,0.0
2013-05-24,0.0,1.0,0.0,0.0
2013-05-27,0.0,1.0,0.0,0.0
2013-05-28,0.0,1.0,0.0,0.0
2013-05-29,0.0,1.0,0.0,0.0
2013-05-30,0.0,1.0,0.0,0.0
2013-05-31,0.0,1.0,0.0,0.0
2013-06-03,0.0,1.0,0.0,0.0
2013-06-04,0.0,1.0,0.0,0.0
2013-06-05,0.0,1.0,0.0,0.0
2013-06-06,0.0,1.0,0.0,0.0
2013-06-07,0.0,1.0,0.0,0.0
2013-06-13,0.0,1.0,0.0,0.0
2013-06-14,0.0,1.0,0.0,0.0
2013-06-17,0.0,1.0,0.0,0.0
2013-06-18,0.0,1.0,0.0,0.0
2013-06-19,0.0,1.0,0.0,0.0
2013-06-20,0.0,1.0,0.0,0.0
2013-06-21,0.0,1.0,0.0,0.0
2013-06-24,0.0,1.0,0.0,0.0
2013-06-25,0.0,1.0,0.0,0.0
2013-06-26,0.0,1.0,0.0,0.0
2013-06-27,0.0,1.0,0.0,0.0
2013-06-28,0.0,1.0,0.0,0.0
2013-07-01,0.0,1.0,0.0,0.0
2013-07-02,0.0,1.0,0.0,0.0
2013-07-03,0.0,1.0,0.0,0.0
2013-07-04,0.0,1.0,0.0,0.0
2013-07-05,0.0,1.0,0.0,0.0
2013-07-08,0.0,1.0,0.0,0.0
2013-07-09,0.0,1.0,0.0,0.0
2013-07-10,0.0,1.0,0.0,0.0
2013-07-11,0.0,1.0,0.0,0.0
2013-07-12,0.0,1.0,0.0,0.0
2013-07-15,0.0,1.0,0.0,0.0
2013-07-16,0.0,1.0,0.0,0.0
2013-07-17,0.0,1.0,0.0,0.0
2013-07-18,0.0,1.0,0.0,0.0
2013-07-19,0.0,1.0,0.0,0.0
2013-07-22,0.0,1.0,0.0,0.0
2013-07-23,0.0,1.0,0.0,0.0
2013-07-24,0.0,1.0,0.0,0.0
2013-07-25,0.0,1.0,0.0,0.0
2013-07-26,0.0,1.0,0.0,0.0
2013-07-29,0.0,1.0,0.0,0.0
2013-07-30,0.0,1.0,0.0,0.0
2013-07-31,0.0,1.0,0.0,0.0
2013-08-01,0.0,1.0,0.0,0.0
2013-08-02,0.0,1.0,0.0,0.0
2013-08-05,0.0,1.0,0.0,0.0
2013-08-06,0.0,1.0,0.0,0.0
2013-08-07,0.0,1.0,0.0,0.0
2013-08-08,0.0,1.0,0.0,0.0
2013-08-09,0.0,1.0,0.0,0.0
2013-08-12,0.0,1.0,0.0,0.0
2013-08-13,0.0,1.0,0.0,0.0
2013-08-14,0.0,1.0,0.0,0.0
2013-08-15,0.0,1.0,0.0,0.0
2013-08-16,0.0,1.0,0.0,0.0
2013-08-19,0.0,1.0,0.0,0.0
2013-08-20,0.0,1.0,0.0,0.0
2013-08-21,0.0,1.0,0.0,0.0
2013-08-22,0.0,1.0,0.0,0.0
2013-08-23,0.0,1.0,0.0,0.0
2013-08-26,0.0,1.0,0.0,0.0
2013-08-27,0.0,1.0,0.0,0.0
2013-08-28,0.0,1.0,0.0,0.0
2013-08-29,0.0,1.0,0.0,0.0
2013-08-30,0.0,1.0,0.0,0.0
2013-09-02,0.0,1.0,0.0,0.0
2013-09-03,0.0,1.0,0.0,0.0
2013-09-04,0.0,1.0,0.0,0.0
2013-09-05,0.0,1.0,0.0,0.0
2013-09-06,0.0,1.0,0.0,0.0
2013-09-09,0.0,1.0,0.0,0.0
2013-09-10,0.0,1.0,0.0,0.0
2013-09-11,0.0,1.0,0.0,0.0
2013-09-12,0.0,1.0,0.0,0.0
2013-09-13,0.0,1.0,0.0,0.0
2013-09-16,0.0,1.0,0.0,0.0
2013-09-17,0.0,1.0,0.0,0.0
2013-09-18,0.0,1.0,0.0,0.0
2013-09-23,0.0,1.0,0.0,0.0
2013-09-24,0.0,1.0,0.0,0.0
2013-09-25,0.0,1.0,0.0,0.0
2013-09-26,0.0,1.0,0.0,0.0
2013-09-27,0.0,1.0,0.0,0.0
2013-09-30,0.0,1.0,0.0,0.0
2013-10-08,0.0,1.0,0.0,0.0
2013-10-09,0.0,1.0,0.0,0.0
2013-10-10,0.0,1.0,0.0,0.0
2013-10-11,0.0,1.0,0.0,0.0
2013-10-14,0.0,1.0,0.0,0.0
2013-10-15,0.0,1.0,0.0,0.0
2013-10-16,0.0,1.0,0.0,0.0
2013-10-17,0.0,1.0,0.0,0.0
2013-10-18,0.0,1.0,0.0,0.0
2013-10-21,0.0,1.0,0.0,0.0
2013-10-22,0.0,1.0,0.0,0.0
2013-10-23,0.0,1.0,0.0,0.0
2013-10-24,0.0,1.0,0.0,0.0
2013-10-25,0.0,1.0,0.0,0.0
2013-10-28,0.0,1.0,0.0,0.0
2013-10-29,0.0,1.0,0.0,0.0
2013-10-30,0.0,1.0,0.0,0.0
2013-10-31,0.0,1.0,0.0,0.0
2013-11-01,0.0,1.0,0.0,0.0
2013-11-04,0.0,1.0,0.0,0.0
2013-11-05,0.0,1.0,0.0,0.0
2013-11-06,0.0,1.0,0.0,0.0
2013-11-07,0.0,1.0,0.0,0.0
2013-11-08,0.0,1.0,0.0,0.0
2013-11-11,0.0,1.0,0.0,0.0
2013-11-12,0.0,1.0,0.0,0.0
2013-11-13,0.0,1.0,0.0,0.0
2013-11-14,0.0,1.0,0.0,0.0
2013-11-15,0.0,1.0,0.0,0.0
2013-11-18,0.0,1.0,0.0,0.0
2013-11-19,0.0,1.0,0.0,0.0
2013-11-20,0.0,1.0,0.0,0.0
2013-11-21,0.0,1.0,0.0,0.0
2013-11-22,0.0,1.0,0.0,0.0
2013-11-25,0.0,1.0,0.0,0.0
2013-11-26,0.0,1.0,0.0,0.0
2013-11-27,0.0,1.0,0.0,0.0
2013-11-28,0.0,1.0,0.0,0.0
2013-11-29,10500.0,1.0021,0.10297774673186309,1.03194
2013-12-02,-49559.99999999981,0.9921880000000001,0.10300749454740432,1.022028
2013-12-03,38219.99999999962,0.9998319999999999,0.10298450139623457,1.029672
2013-12-04,64259.99999999981,1.012684,0.10294662500839352,1.0425239999999998
2013-12-05,3360.000000000764,1.0133560000000001,0.10294467097446507,1.0431960000000002
2013-12-06,-35280.00000000038,1.0063,0.10296531849349101,1.03614
2013-12-09,-11759.999999999809,1.003948,0.10297226549582249,1.033788
2013-12-10,1259.999999999809,1.0042,0.10297151961760606,1.03404
2013-12-11,-86100.0,0.98698,0.10302336420190886,1.01682
2013-12-12,-17640.00000000019,0.983452,0.10303421010888178,1.013292
2013-12-13,3359.999999999809,0.9841239999999999,0.10303213822648365,1.0139639999999999
2013-12-16,-102059.99999999981,0.963712,0.10309636073847789,0.993552
2013-12-17,21420.000000000575,0.9679960000000001,0.0,0.0
2013-12-18,-27719.999999999618,0.9624520000000002,0.1033447901817441,0.9946439999999999
2013-12-19,55440.00000000019,0.9735400000000002,0.10133944162540828,0.98658
2013-12-20,101640.00000000019,0.9938680000000002,0.09722136138803139,0.966252
2013-12-23,-11340.000000000191,0.9916000000000001,0.09767244856797094,0.96852
2013-12-24,1259.999999999809,0.9918520000000002,0.09762222589660552,0.968268
2013-12-25,-28559.99999999981,0.9861400000000002,0.098766909363782,0.97398
2013-12-26,52500.0,0.9966400000000002,0.0966728206774763,0.96348
2013-12-27,-68880.00000000038,0.9828640000000001,0.09942942258542382,0.9772560000000002
2013-12-30,5460.000000000764,0.9839560000000003,0.09920809467089989,0.9761639999999998
2013-12-31,-43680.00000000038,0.9752200000000002,0.10099259654231864,0.9849
2014-01-02,27719.999999999618,0.9807640000000001,0.09985643845002468,0.9793560000000002
2014-01-03,61740.00000000019,0.9931120000000001,0.09737149485657205,0.967008
2014-01-06,129359.99999999981,1.0189840000000001,0.09236023333045465,0.9411360000000002
2014-01-07,5040.000000000191,1.0199920000000002,0.09217013466772286,0.940128
2014-01-08,-5879.999999999427,1.0188160000000002,0.09239195301212384,0.9413039999999998
2014-01-09,36959.99999999981,1.0262080000000002,0.09100611182138513,0.933912
2014-01-10,11759.999999999809,1.0285600000000001,0.09056933965932953,0.93156
2014-01-13,28559.99999999981,1.034272,0.08951687757185729,0.925848
2014-01-14,-27719.999999999618,1.0287280000000003,0.09053821807124914,0.931392
2014-01-15,12600.0,1.0312480000000002,0.09007261104991232,0.928872
2014-01-16,840.000000000191,1.0314160000000003,0.09004165147719248,0.9287039999999999
2014-01-17,17640.000000000193,1.0349440000000003,0.08924772741327062,0.9236639999999998
2014-01-20,30659.99999999981,1.0410760000000003,0.08813304696294984,0.917532
2014-01-21,-45780.00000000038,1.0319200000000002,0.08980231025660902,0.926688
2014-01-22,-101219.99999999962,1.0116760000000002,0.09360032263293779,0.946932
2014-01-23,21840.00000000019,1.0160440000000004,0.09276802973099586,0.9425639999999998
2014-01-24,-15960.000000000764,1.012852,0.09337553759088199,0.9457560000000002
2014-01-27,52080.00000000038,1.0232680000000003,0.09140713869680278,0.93534
2014-01-28,-7980.000000000382,1.0216720000000001,0.09170614443774519,0.9369360000000002
2014-01-29,-19319.999999999618,1.0178080000000003,0.0924339364595287,0.9408
2014-01-30,85680.00000000038,1.0349440000000003,0.08924772741327062,0.9236639999999998
2014-02-07,-32340.00000000019,1.0284760000000004,0.0904378906265192,0.930132
2014-02-10,-96180.00000000038,1.0092400000000001,0.09406761523522648,0.949368
2014-02-11,-3359.999999999811,1.0085680000000004,0.0,0.0
2014-02-12,0.0,1.0085680000000004,0.0,0.0
2014-02-13,0.0,1.0085680000000004,0.0,0.0
2014-02-14,0.0,1.0085680000000004,0.0,0.0
2014-02-17,17640.00000000019,1.0120960000000003,0.09566958075123305,0.968268
2014-02-18,-60480.00000000038,1.0000000000000002,0.09596999999999999,0.9597
2014-02-19,49980.00000000038,1.0099960000000003,0.0960098851876641,0.9696960000000002
2014-02-20,-54600.0,0.9990760000000003,0.09596627283610054,0.9587760000000002
2014-02-21,-34860.000000000764,0.9921040000000001,0.09593792586261114,0.9518039999999998
2014-02-24,-126000.0,0.9669040000000001,0.09583205778443359,0.9266039999999998
2014-02-25,18480.000000000393,0.9706000000000002,0.0,0.0
2014-02-26,0.0,0.9706000000000002,0.0,0.0
2014-02-27,0.0,0.9706000000000002,0.0,0.0
2014-02-28,0.0,0.9706000000000002,0.0,0.0
2014-03-03,0.0,0.9706000000000002,0.0,0.0
2014-03-04,0.0,0.9706000000000002,0.0,0.0
2014-03-05,0.0,0.9706000000000002,0.0,0.0
2014-03-06,0.0,0.9706000000000002,0.0,0.0
2014-03-07,0.0,0.9706000000000002,0.0,0.0
2014-03-10,0.0,0.9706000000000002,0.0,0.0
2014-03-11,0.0,0.9706000000000002,0.0,0.0
2014-03-12,0.0,0.9706000000000002,0.0,0.0
2014-03-13,0.0,0.9706000000000002,0.0,0.0
2014-03-14,0.0,0.9706000000000002,0.0,0.0
2014-03-17,0.0,0.9706000000000002,0.0,0.0
2014-03-18,0.0,0.9706000000000002,0.0,0.0
2014-03-19,0.0,0.9706000000000002,0.0,0.0
2014-03-20,0.0,0.9706000000000002,0.0,0.0
2014-03-21,0.0,0.9706000000000002,0.0,0.0
2014-03-24,0.0,0.9706000000000002,0.0,0.0
2014-03-25,0.0,0.9706000000000002,0.0,0.0
2014-03-26,0.0,0.9706000000000002,0.0,0.0
2014-03-27,0.0,0.9706000000000002,0.0,0.0
2014-03-28,0.0,0.9706000000000002,0.0,0.0
2014-03-31,0.0,0.9706000000000002,0.0,0.0
2014-04-01,0.0,0.9706000000000002,0.0,0.0
2014-04-02,0.0,0.9706000000000002,0.0,0.0
2014-04-03,0.0,0.9706000000000002,0.0,0.0
2014-04-04,0.0,0.9706000000000002,0.0,0.0
2014-04-08,161759.99999999913,1.002952,0.1075481179557945,1.078656
2014-04-09,-26400.0,0.997672,0.10758806501535575,1.073376
2014-04-10,117120.00000000044,1.0210960000000002,0.1074139943746719,1.0968
2014-04-11,-31200.0,1.0148560000000002,0.10745958047250051,1.09056
2014-04-14,960.0000000002183,1.0150480000000002,0.10745816946587745,1.090752
2014-04-15,-85439.99999999978,0.9979600000000002,0.10758587518537815,1.073664
2014-04-16,-9120.000000000437,0.9961360000000001,0.1075997654938683,1.07184
2014-04-17,-9600.0,0.9942160000000001,0.10761444193213546,1.06992
2014-04-18,16320.000000000437,0.9974800000000003,0.10710831294863053,1.068384
2014-04-21,-110400.0,0.9754000000000002,0.1072692228829198,1.046304
2014-04-22,21119.999999999345,0.979624,0.10723787902297208,1.050528
2014-04-23,-8639.999999999782,0.9778960000000001,0.10725066878277442,1.0488
2014-04-24,-4320.000000000437,0.977032,0.1072570806278607,1.047936
2014-04-25,-25919.999999999345,0.9718480000000002,0.1072957911113672,1.042752
2014-04-28,-33120.00000000044,0.9652240000000001,0.0,0.0
2014-04-29,0.0,0.9652240000000001,0.0,0.0
2014-04-30,0.0,0.9652240000000001,0.0,0.0
2014-05-05,0.0,0.9652240000000001,0.0,0.0
2014-05-06,0.0,0.9652240000000001,0.0,0.0
2014-05-07,14400.0,0.9681040000000001,0.10590597704378868,1.02528
2014-05-08,-3360.0000000002183,0.9674320000000001,0.1060490039610019,1.025952
2014-05-09,-1439.9999999997817,0.9671440000000001,0.10611036205570215,1.02624
2014-05-12,-97920.00000000044,0.94756,0.11037021402338638,1.045824
2014-05-13,29280.000000000655,0.9534160000000002,0.10907809392751955,1.039968
2014-05-14,2399.9999999989086,0.9538959999999999,0.10847975041304293,1.034784
2014-05-15,46080.000000000655,0.9631120000000001,0.10648481173529142,1.025568
2014-05-16,14879.999999999563,0.966088,0.1058487425576138,1.022592
2014-05-19,73920.00000000044,0.9808720000000001,0.10274612793514343,1.007808
2014-05-20,479.99999999956344,0.980968,0.10272628668825079,1.007712
2014-05-21,-47519.999999999345,0.9714640000000001,0.10470959294425733,1.017216
2014-05-22,12000.0,0.9738640000000001,0.10420510461419664,1.014816
2014-05-23,-69600.0,0.9599440000000001,0.10716625136466294,1.028736
2014-05-26,-12000.0,0.9575440000000001,0.10768549539237883,1.031136
2014-05-27,14400.0,0.960424,0.10706271396799746,1.028256
2014-05-28,-75840.00000000087,0.9452559999999999,0.1103853347664548,1.043424
2014-05-29,-3839.9999999997817,0.944488,0.0,0.0
2014-05-30,0.0,0.944488,0.0,0.0
2014-06-03,0.0,0.944488,0.0,0.0
2014-06-04,0.0,0.944488,0.0,0.0
2014-06-05,0.0,0.944488,0.0,0.0
2014-06-06,0.0,0.944488,0.0,0.0
2014-06-09,0.0,0.944488,0.0,0.0
2014-06-10,0.0,0.944488,0.0,0.0
2014-06-11,0.0,0.944488,0.0,0.0
2014-06-12,0.0,0.944488,0.0,0.0
2014-06-13,0.0,0.944488,0.0,0.0
2014-06-16,13439.999999999782,0.9471759999999999,0.11081024012432747,1.049568
2014-06-17,-32639.99999999978,0.9406479999999999,0.11088526207465492,1.04304
2014-06-18,-16800.0,0.9372879999999999,0.11059652956188493,1.036608
2014-06-19,-69600.0,0.923368,0.1107562748546625,1.022688
2014-06-20,1439.9999999997817,0.9236559999999999,0.0,0.0
2014-06-23,0.0,0.9236559999999999,0.0,0.0
2014-06-24,0.0,0.9236559999999999,0.0,0.0
2014-06-25,0.0,0.9236559999999999,0.0,0.0
2014-06-26,0.0,0.9236559999999999,0.0,0.0
2014-06-27,0.0,0.9236559999999999,0.0,0.0
2014-06-30,0.0,0.9236559999999999,0.0,0.0
2014-07-01,0.0,0.9236559999999999,0.0,0.0
2014-07-02,0.0,0.9236559999999999,0.0,0.0
2014-07-03,0.0,0.9236559999999999,0.0,0.0
2014-07-04,0.0,0.9236559999999999,0.0,0.0
2014-07-07,0.0,0.9236559999999999,0.0,0.0
2014-07-08,0.0,0.9236559999999999,0.0,0.0
2014-07-09,0.0,0.9236559999999999,0.0,0.0
2014-07-10,0.0,0.9236559999999999,0.0,0.0
2014-07-11,0.0,0.9236559999999999,0.0,0.0
2014-07-14,0.0,0.9236559999999999,0.0,0.0
2014-07-15,0.0,0.9236559999999999,0.0,0.0
2014-07-16,0.0,0.9236559999999999,0.0,0.0
2014-07-17,0.0,0.9236559999999999,0.0,0.0
2014-07-18,0.0,0.9236559999999999,0.0,0.0
2014-07-21,0.0,0.9236559999999999,0.0,0.0
2014-07-22,0.0,0.9236559999999999,0.0,0.0
2014-07-23,5279.999999999563,0.9247119999999998,0.1137097820726886,1.051488
2014-07-24,119520.00000000044,0.9486159999999999,0.11336431179739749,1.075392
2014-07-25,82079.99999999956,0.9650319999999998,0.11313697369620906,1.091808
2014-07-28,148320.00000000044,0.9946959999999999,0.11274520054368371,1.121472
2014-07-29,-2400.0,0.9942159999999999,0.11275135383055596,1.120992
2014-07-30,-15839.999999999782,0.9910479999999999,0.11279211501360176,1.117824
2014-07-31,100800.0,1.0112079999999999,0.11253708435850983,1.137984
2014-08-01,-67680.00000000065,0.9976719999999998,0.11270718232044201,1.124448
2014-08-04,105120.00000000044,1.0186959999999998,0.11244492959626819,1.145472
2014-08-05,-44160.00000000022,1.0098639999999999,0.11255376961650283,1.13664
2014-08-06,-14400.0,1.0069839999999999,0.11258967371874828,1.13376
2014-08-07,-66239.99999999978,0.993736,0.11275751306181926,1.120512
2014-08-08,10079.999999999563,0.9957519999999999,0.11273168419445807,1.122528
2014-08-11,51360.00000000022,1.0060239999999998,0.11260168743489223,1.1328
2014-08-12,13920.000000000437,1.008808,0.11256691065098612,1.135584
2014-08-13,-12000.0,1.006408,0.11295935644390744,1.136832
2014-08-14,-55680.000000000655,0.9952719999999998,0.11310435740179571,1.125696
2014-08-15,78720.00000000044,1.011016,0.11290029040094324,1.14144
2014-08-18,-4320.000000000437,1.0101519999999997,0.11291132423635257,1.140576
2014-08-19,-4319.999999999345,1.009288,0.1129223769627698,1.139712
2014-08-20,-24000.0,1.004488,0.11298412723696052,1.134912
2014-08-21,-23039.99999999978,0.99988,0.1130439652758331,1.130304
2014-08-22,41759.99999999913,1.0082319999999998,0.11293591157590716,1.138656
2014-08-25,-58079.99999999956,0.996616,0.11308668534320142,1.12704
2014-08-26,-24960.00000000022,0.9916239999999998,0.11315256589191067,1.122048
2014-08-27,-3839.9999999997817,0.9908559999999998,0.11316276028000034,1.12128
2014-08-28,-12960.000000000218,0.9882639999999998,0.11319728331700843,1.118688
2014-08-29,50400.0,0.9983439999999999,0.11306403404037088,1.128768
2014-09-01,-4800.0,0.9973839999999998,0.11307660840759429,1.127808
2014-09-02,95520.00000000044,1.0164879999999998,0.11283084502719166,1.146912
2014-09-03,53279.99999999956,1.0271439999999998,0.11269773274243924,1.157568
2014-09-04,81600.0,1.043464,0.11249913748821236,1.173888
2014-09-05,59039.99999999978,1.0552719999999998,0.11235927798709719,1.185696
2014-09-09,-30239.99999999978,1.049224,0.1124305200796017,1.179648
2014-09-10,-38879.99999999956,1.041448,0.11252333289804195,1.171872
2014-09-11,-56160.00000000022,1.0302159999999998,0.11265986938661407,1.16064
2014-09-12,50879.99999999956,1.0403919999999998,0.11253604410645221,1.170816
2014-09-15,-14879.999999999563,1.037416,0.11257200582986959,1.16784
2014-09-16,-93120.00000000044,1.018792,0.1128018280473345,1.149216
2014-09-17,18720.000000000437,1.022536,0.11275495434879554,1.15296
2014-09-18,16800.0,1.025896,0.11294712134563348,1.15872
2014-09-19,65760.00000000022,1.039048,0.11278324004280842,1.171872
2014-09-22,-125280.00000000065,1.0139919999999998,0.11309911715279806,1.146816
2014-09-23,35040.00000000087,1.021,0.11300920666013713,1.153824
2014-09-24,155039.99999999977,1.052008,0.11262575949992776,1.184832
2014-09-25,-33120.00000000044,1.0453839999999999,0.11270576171052936,1.178208
2014-09-26,-9119.999999999345,1.04356,0.11272796964237801,1.176384
2014-09-29,10559.999999999127,1.0456719999999997,0.11270226227727244,1.178496
2014-09-30,-4800.0,1.0447119999999999,0.11271393455804089,1.177536
2014-10-08,72960.00000000022,1.0593039999999998,0.11253879906051523,1.192128
2014-10-09,-20639.99999999978,1.055176,0.11258785264259233,1.188
2014-10-10,-12479.999999999563,1.05268,0.11261769958581905,1.185504
2014-10-13,-36960.00000000022,1.045288,0.11270692861680226,1.178112
2014-10-14,-37920.00000000044,1.037704,0.11279979647375361,1.170528
2014-10-15,39360.00000000022,1.0455759999999998,0.11270342854082344,1.1784
2014-10-16,-20160.00000000022,1.0415439999999998,0.11275260574685277,1.174368
2014-10-17,-17279.999999999563,1.038088,0.11302625596288561,1.173312
2014-10-20,22560.00000000022,1.0426,0.11296988298484557,1.177824
2014-10-21,-34560.00000000022,1.035688,0.1130564417083137,1.170912
2014-10-22,8160.000000000218,1.03732,0.0,0.0
2014-10-23,0.0,1.03732,0.0,0.0
2014-10-24,0.0,1.03732,0.0,0.0
2014-10-27,21000.0,1.04152,0.09601543897380752,1.00002
2014-10-28,-94080.00000000038,1.0227039999999998,0.09962178694910749,1.0188360000000003
2014-10-29,-66779.99999999943,1.0093480000000001,0.10226324320254263,1.032192
2014-10-30,-5040.000000000189,1.00834,0.0,0.0
2014-10-31,0.0,1.00834,0.0,0.0
2014-11-03,-28560.000000000764,1.0026279999999999,0.10519395029861524,1.0547039999999999
2014-11-04,-419.999999999618,1.0025439999999999,0.1051943854833304,1.05462
2014-11-05,8819.999999999618,1.0043079999999998,0.10518526189177026,1.0563839999999998
2014-11-06,4200.0,1.005148,0.10518092857967185,1.0572239999999997
2014-11-07,-43679.999999999425,0.996412,0.10522635215151965,1.048488
2014-11-10,143640.0000000002,1.02514,0.10507989152701097,1.0772160000000002
2014-11-11,-32340.00000000019,1.018672,0.10511214600970675,1.070748
2014-11-12,73079.99999999943,1.0332879999999998,0.10503983400562089,1.0853639999999998
2014-11-13,-28139.999999999236,1.02766,0.10506743475468543,1.0797360000000003
2014-11-14,15539.999999999236,1.030768,0.10505215528615557,1.082844
2014-11-17,-23519.999999999618,1.0260639999999999,0.10507531693929424,1.07814
2014-11-18,-41580.00000000038,1.0177479999999999,0.10524059000852863,1.0710839999999997
2014-11-19,-18479.999999999425,1.014052,0.10525969082453365,1.067388
2014-11-20,24779.999999999425,1.019008,0.10523411003642757,1.0723439999999997
2014-11-21,104160.00000000076,1.0398399999999999,0.10512925065394678,1.0931760000000001
2014-11-24,150359.9999999998,1.069912,0.1049850828853214,1.123248
2014-11-25,105000.0,1.0909119999999999,0.1048891202956792,1.144248
2014-11-26,44519.99999999962,1.099816,0.10484953846825289,1.153152
2014-11-27,19320.000000000575,1.10368,0.10483256016236592,1.1570160000000003
2014-11-28,149519.99999999962,1.133584,0.10470507699473529,1.18692
2014-12-01,-35280.00000000038,1.126528,0.10473454721054426,1.1798639999999998
2014-12-02,266280.0000000004,1.179784,0.10452082754131264,1.23312
2014-12-03,126419.99999999962,1.2050679999999998,0.10442597430186513,1.2584039999999999
2014-12-04,419160.00000000076,1.2889,0.10413810225773917,1.3422360000000002
2014-12-05,-26880.000000000382,1.2835239999999999,0.10415543456920166,1.33686
2014-12-08,302819.9999999996,1.3440879999999997,0.10396819255882057,1.3974239999999998
2014-12-09,-386819.9999999996,1.266724,0.1042105462594851,1.32006
2014-12-10,181859.9999999998,1.303096,0.10409302154254176,1.356432
2014-12-11,-45779.999999999425,1.29394,0.1041219840178061,1.3472760000000001
2014-12-12,16800.0,1.2973,0.10411130810144148,1.3506360000000002
2014-12-15,59219.99999999962,1.3091439999999999,0.10407411254987992,1.36248
2014-12-16,165480.00000000038,1.3422399999999999,0.10397365597806653,1.3955760000000001
2014-12-17,207479.9999999994,1.3837359999999999,0.10564529650164484,1.461852
2014-12-18,21000.0,1.3879359999999998,0.10562821340465268,1.466052
2014-12-19,26040.00000000019,1.393144,0.10560717341495209,1.47126
2014-12-22,-217559.9999999998,1.349632,0.10578794812215478,1.427748
2014-12-23,-181440.0000000002,1.3133439999999998,0.10594787047414843,1.39146
2014-12-24,-113400.0,1.290664,0.10605238853799284,1.36878
2014-12-25,256200.0,1.341904,0.10582128080697278,1.42002
2014-12-26,214200.0,1.384744,0.10564118710750868,1.46286
2014-12-29,-17640.00000000019,1.3812159999999998,0.10565559622825106,1.459332
2014-12-30,16800.0,1.3845759999999998,0.10564187159101415,1.462692
2014-12-31,232259.9999999998,1.4310279999999997,0.10545873316245385,1.5091439999999998
2015-01-05,164220.00000000058,1.4638719999999998,0.10533625890788266,1.541988
2015-01-06,-30659.99999999981,1.4577399999999998,0.10535870594207473,1.535856
2015-01-07,13439.999999999236,1.4604279999999998,0.10534884294193211,1.538544
2015-01-08,-212519.99999999962,1.4179239999999997,0.10550918102803819,1.49604
2015-01-09,-71400.0,1.403644,0.10556522879020608,1.48176
2015-01-12,20159.99999999981,1.4076759999999997,0.10554928833055335,1.485792
2015-01-13,-16800.0,1.4043159999999997,0.10556256569034321,1.482432
2015-01-14,-53340.00000000019,1.3936479999999998,0.10560514563218262,1.4717639999999999
2015-01-15,293580.00000000035,1.4523639999999998,0.10652370893247148,1.547112
2015-01-16,-34440.00000000019,1.4454759999999998,0.10655479579045243,1.5402239999999998
2015-01-19,-737100.0,1.2980559999999999,0.10729922283784368,1.3928039999999997
2015-01-20,-27719.99999999962,1.2925119999999999,0.0,0.0
2015-01-21,0.0,1.2925119999999999,0.0,0.0
2015-01-22,0.0,1.2925119999999999,0.0,0.0
2015-01-23,0.0,1.2925119999999999,0.0,0.0
2015-01-26,0.0,1.2925119999999999,0.0,0.0
2015-01-27,-97200.00000000028,1.273072,0.0842356127540312,1.07238
2015-01-28,-76500.0,1.257772,0.08404384896467723,1.05708
2015-01-29,-45000.0,1.2487719999999998,0.08392885170391394,1.04808
2015-01-30,19200.000000000276,1.2526119999999998,0.0,0.0
2015-02-02,0.0,1.2526119999999998,0.0,0.0
2015-02-03,0.0,1.2526119999999998,0.0,0.0
2015-02-04,0.0,1.2526119999999998,0.0,0.0
2015-02-05,0.0,1.2526119999999998,0.0,0.0
2015-02-06,25200.000000000273,1.257652,0.07978200646919816,1.00338
2015-02-09,-47399.99999999986,1.248172,0.08114747006021605,1.01286
2015-02-10,-91800.00000000041,1.229812,0.0838518407691582,1.03122
2015-02-11,-14399.999999999864,1.226932,0.08428339956900627,1.0341
2015-02-12,600.0000000001382,1.227052,0.08532645723245633,1.047
2015-02-13,-15000.0,1.224052,0.08578066944868355,1.05
2015-02-16,-67200.00000000028,1.210612,0.08784317353536888,1.06344
2015-02-17,-2699.999999999589,1.210072,0.0,0.0
2015-02-25,0.0,1.210072,0.0,0.0
2015-02-26,0.0,1.210072,0.0,0.0
2015-02-27,-41400.000000000546,1.201792,0.08954627755884546,1.07616
2015-03-02,28500.0,1.207492,0.08959562465010121,1.08186
2015-03-03,-99899.99999999987,1.187512,0.08942057006581829,1.06188
2015-03-04,-9600.000000000136,1.185592,0.08940343727015702,1.05996
2015-03-05,-39899.99999999986,1.1776119999999999,0.08933163045213534,1.05198
2015-03-06,-24600.00000000014,1.1726919999999998,0.08928687157412177,1.04706
2015-03-09,-28500.0,1.166992,0.0,0.0
2015-03-10,0.0,1.166992,0.0,0.0
2015-03-11,0.0,1.166992,0.0,0.0
2015-03-12,0.0,1.166992,0.0,0.0
2015-03-13,19200.000000000273,1.1708319999999999,0.09282629788048158,1.08684
2015-03-16,136500.0,1.198132,0.0929897540504719,1.11414
2015-03-17,76799.99999999972,1.213492,0.09307848753844278,1.1295
2015-03-18,72000.0,1.227892,0.09315965899281044,1.1439
2015-03-19,-5999.999999999996,1.226692,0.09427305305651296,1.15644
2015-03-20,96299.99999999972,1.245952,0.09436158054242862,1.1757
2015-03-23,112799.99999999972,1.2685119999999999,0.0944618576726117,1.19826
2015-03-24,-45899.99999999986,1.259332,0.09442148694704813,1.18908
2015-03-25,-17699.999999999593,1.255792,0.09440576146368189,1.18554
2015-03-26,-26700.000000000273,1.250452,0.09438187151526008,1.1802
2015-03-27,77399.99999999987,1.2659319999999998,0.09445057080475099,1.19568
2015-03-30,232500.00000000067,1.312432,0.09464718934009533,1.24218
2015-03-31,-157200.00000000026,1.280992,0.09451581274512252,1.21074
2015-04-01,130500.0,1.307092,0.09462532094144865,1.23684
2015-04-02,-24900.000000000546,1.302112,0.09460476518148977,1.23186
2015-04-03,149700.00000000026,1.332052,0.09472603171647953,1.2618
2015-04-07,50700.00000000028,1.3421919999999998,0.09476587552302503,1.27194
2015-04-08,11700.000000000273,1.344532,0.0947749849018097,1.27428
2015-04-09,-32100.00000000082,1.3381119999999997,0.09474991629998088,1.26786
2015-04-10,226200.00000000026,1.383352,0.0949216106963376,1.3131
2015-04-13,66000.0,1.3965519999999998,0.09496961087020034,1.3263
2015-04-14,-6599.999999999454,1.395232,0.09496485172358432,1.32498
2015-04-15,-51300.00000000109,1.3849719999999996,0.09492755088189511,1.31472
2015-04-16,208200.00000000026,1.4266119999999998,0.0950756057007792,1.35636
2015-04-17,57599.99999999946,1.4381319999999997,0.09604959767253635,1.38132
2015-04-20,-132000.0,1.4117319999999998,0.095975723437593,1.35492
2015-04-21,153600.00000000081,1.4424519999999998,0.09606142873385042,1.38564
2015-04-22,213299.99999999974,1.4851119999999998,0.09617456461196194,1.4283
2015-04-23,-67500.0,1.471612,0.09613947154548891,1.4148
2015-04-24,9000.0,1.4734119999999997,0.09614418777639928,1.4166
2015-04-27,123000.0,1.4980119999999997,0.09620750701596517,1.4412
2015-04-28,-124500.0,1.4731119999999998,0.09614340253829988,1.4163
2015-04-29,75000.0,1.4881119999999999,0.09618227660283636,1.4313
2015-04-30,-4799.999999999727,1.487152,0.09617981215101079,1.43034
2015-05-04,-15299.999999999727,1.484092,0.09617193543257425,1.42728
2015-05-05,-209400.00000000055,1.4422119999999998,0.09606077331210668,1.3854
2015-05-06,-54000.0,1.431412,0.09603105185648855,1.3746
2015-05-07,-118200.00000000028,1.4077719999999998,0.09596440332667507,1.35096
2015-05-08,57299.99999999972,1.4192319999999998,0.09599698992130956,1.36242
2015-05-11,174900.00000000055,1.4542119999999998,0.09609327938429885,1.3974
2015-05-12,69000.0,1.4680119999999999,0.09613000438688513,1.4112
2015-05-13,-79500.0,1.4521119999999998,0.09613308064391728,1.39596
2015-05-14,16200.000000000273,1.455352,0.09614168943320929,1.3992
2015-05-15,-151500.0,1.425052,0.09605965256004693,1.3689
2015-05-18,-39299.99999999972,1.417192,0.096037798689239,1.36104
2015-05-19,16500.0,1.4204919999999999,0.0,0.0
2015-05-20,-4500.0,1.419592,0.06054556520465035,0.8595
2015-05-21,105120.00000000016,1.440616,0.061121353643163755,0.880524
2015-05-22,117900.0,1.464196,0.061747470967001686,0.904104
2015-05-25,120239.9999999995,1.488244,0.062365579837714784,0.928152
2015-05-26,106020.00000000016,1.509448,0.06289425008347423,0.949356
2015-05-27,14220.000000000164,1.512292,0.06296403075596511,0.9522
2015-05-28,-312120.0000000002,1.449868,0.06136944880499466,0.889776
2015-05-29,-41579.99999999984,1.441552,0.06114659755596746,0.88146
2015-06-01,316800.0,1.504912,0.06278240853950265,0.94482
2015-06-02,13679.999999999836,1.5076479999999999,0.06284994905972748,0.947556
2015-06-03,-73439.9999999995,1.49296,0.06248446040081449,0.932868
2015-06-04,61019.999999999345,1.505164,0.06278863964325482,0.945072
2015-06-05,-18000.0,1.501564,0.06269942539911719,0.941472
2015-06-08,94500.0,1.520464,0.06316308705763504,0.960372
2015-06-09,-76500.0,1.505164,0.06278863964325482,0.945072
2015-06-10,2160.000000000491,1.5055960000000002,0.06279931668256292,0.945504
2015-06-11,42120.00000000016,1.51402,0.06300630110566571,0.953928
2015-06-12,55800.0,1.52518,0.06327699025688771,0.965088
2015-06-15,-145620.00000000017,1.496056,0.0625620966060094,0.935964
2015-06-16,-117540.00000000032,1.472548,0.06196443171971304,0.912456
2015-06-17,40140.00000000033,1.4805760000000001,0.06217066871271721,0.920484
2015-06-18,-152820.00000000017,1.450012,0.061323630425127514,0.8892
2015-06-19,-5400.0,1.448932,0.0,0.0
2015-06-23,-160560.00000000023,1.41682,0.08013664403382222,1.135392
2015-06-24,-152879.99999999956,1.386244,0.08410986810402786,1.165968
2015-06-25,325200.0,1.451284,0.07585889460643128,1.100928
2015-06-26,449760.00000000023,1.541236,0.06559514571421898,1.010976
2015-06-29,237839.99999999977,1.588804,0.06063730957374226,0.963408
2015-06-30,-440639.99999999977,1.500676,0.07007082141648163,1.051536
2015-07-01,386879.99999999953,1.578052,0.06173180604948379,0.97416
2015-07-02,-85200.0,1.5610119999999998,0.06349726971989965,0.9912
2015-07-03,237839.99999999977,1.60858,0.05866242275796044,0.943632
2015-07-06,-130559.99999999968,1.582468,0.06128048086912342,0.969744
2015-07-07,412559.99999999965,1.66498,0.05328784730146909,0.887232
2015-07-08,280080.0000000001,1.720996,0.048298543401611625,0.831216
2015-07-09,-415919.9999999999,1.6378119999999998,0.055830583730000764,0.9144
2015-07-10,-427920.00000000047,1.5522279999999997,0.06442249463352034,0.999984
2015-07-13,97440.00000000032,1.571716,0.062383789437786476,0.980496
2015-07-14,100560.00000000022,1.5918279999999998,0.06033214643793174,0.960384
2015-07-15,171839.99999999977,1.6261959999999998,0.056943689444568804,0.926016
2015-07-16,-179519.99999999988,1.5902919999999998,0.06048700490224437,0.96192
2015-07-17,-250080.00000000012,1.540276,0.06373507085743076,0.981696
2015-07-20,168480.00000000012,1.573972,0.060229788077551576,0.948
2015-07-21,-22800.0,1.5694119999999998,0.06069534322408648,0.95256
2015-07-22,28560.00000000022,1.5751239999999997,0.06011260065874179,0.946848
2015-07-23,-286320.00000000047,1.5178599999999998,0.06615313665291926,1.004112
2015-07-24,205920.00000000044,1.5590439999999997,0.06176400409481709,0.962928
2015-07-27,437279.99999999953,1.6464999999999996,0.05317169754023688,0.875472
2015-07-28,-7439.999999999782,1.6450119999999997,0.05331024940851496,0.87696
2015-07-29,-200880.00000000012,1.6048359999999997,0.05714826935587189,0.917136
2015-07-30,201119.99999999988,1.6450599999999997,0.05330577608111559,0.876912
2015-07-31,-47519.99999999989,1.6355559999999998,0.054196615707441394,0.886416
2015-08-03,66240.00000000032,1.6488039999999997,0.052957659006164476,0.873168
2015-08-04,-239280.00000000012,1.6009479999999998,0.05752991352623571,0.921024
2015-08-05,90000.0,1.6189479999999998,0.0557784437795408,0.903024
2015-08-06,-5040.000000000327,1.6179399999999997,0.055875496001087814,0.904032
2015-08-07,-105359.99999999968,1.5968679999999997,0.057932402678242664,0.925104
2015-08-10,-213840.00000000032,1.5540999999999996,0.062278617849559244,0.967872
2015-08-11,-16559.999999999673,1.5507879999999998,0.0,0.0
2015-08-12,0.0,1.5507879999999998,0.0,0.0
2015-08-13,0.0,1.5507879999999998,0.0,0.0
2015-08-14,0.0,1.5507879999999998,0.0,0.0
2015-08-17,0.0,1.5507879999999998,0.0,0.0
2015-08-18,0.0,1.5507879999999998,0.0,0.0
2015-08-19,0.0,1.5507879999999998,0.0,0.0
2015-08-20,0.0,1.5507879999999998,0.0,0.0
2015-08-21,166500.0,1.584088,0.06570089540480076,1.04076
2015-08-24,505500.0,1.6851879999999997,0.05575995081854369,0.93966
2015-08-25,465899.9999999999,1.778368,0.047598697232518805,0.84648
2015-08-26,108000.0,1.7999679999999998,0.04582748137744671,0.82488
2015-08-27,-421800.0000000004,1.7156079999999996,0.05299812078283618,0.90924
2015-08-28,-236399.99999999985,1.6683279999999998,0.05733404941953862,0.95652
2015-08-31,177300.0000000004,1.7037879999999999,0.05405954261915215,0.92106
2015-09-01,106799.99999999972,1.7251479999999997,0.05215204724464221,0.8997
2015-09-02,49799.99999999972,1.7351079999999997,0.0512786523951247,0.88974
2015-09-07,-195599.99999999945,1.6959879999999998,0.054768076189218334,0.92886
2015-09-08,-362700.0000000003,1.6234479999999998,0.06168352789864537,1.0014
2015-09-09,14700.000000000273,1.6263879999999997,0.06139125473134333,0.99846
2015-09-10,47399.99999999986,1.6358679999999999,0.06045597811070332,0.98898
2015-09-11,-22200.000000000273,1.6314279999999997,0.06089266581179189,0.99342
2015-09-14,271200.0000000003,1.6856679999999997,0.05571559761471418,0.93918
2015-09-15,-17399.99999999986,1.6821879999999996,0.056037731811188776,0.94266
2015-09-16,-243900.00000000055,1.6334079999999997,0.06069763341430924,0.99144
2015-09-17,96300.00000000041,1.6526679999999998,0.058824881948461534,0.97218
2015-09-18,-59100.00000000013,1.6408479999999996,0.057391056331847934,0.9417
2015-09-21,-139799.99999999974,1.6128879999999999,0.06011948752796227,0.96966
2015-09-22,-900.0000000005457,1.6127079999999996,0.06013735902593651,0.96984
2015-09-23,107700.00000000028,1.634248,0.058026688727781835,0.9483
2015-09-24,-39000.0,1.626448,0.05878454152853335,0.9561
2015-09-25,103500.0,1.6471479999999998,0.05678906813473957,0.9354
2015-09-28,-48000.0,1.6375479999999998,0.05770823206403721,0.945
2015-09-29,100799.99999999972,1.6577079999999997,0.05579028393420314,0.92484
2015-09-30,-57899.99999999986,1.6461279999999996,0.056886220269626676,0.93642
2015-10-08,-140100.00000000015,1.6181079999999999,0.05960294368484676,0.96444
2015-10-09,-39899.99999999987,1.6101279999999996,0.0,0.0
2015-10-12,0.0,1.6101279999999996,0.0,0.0
2015-10-13,-7799.999999999727,1.6085679999999998,0.0636864590119908,1.02444
2015-10-14,-56700.00000000028,1.5972279999999999,0.06342864011900619,1.0131
2015-10-15,175200.00000000026,1.6322679999999998,0.06421371980581621,1.04814
2015-10-16,44699.999999999585,1.6412079999999998,0.06281836305940504,1.03098
2015-10-19,-82799.99999999972,1.6246479999999996,0.062439371482314945,1.01442
2015-10-20,127799.99999999972,1.6502079999999997,0.06302114642517793,1.03998
2015-10-21,-185699.9999999996,1.6130679999999997,0.062169728740511875,1.00284
2015-10-22,93299.99999999972,1.6317279999999998,0.06260234548895406,1.0215
2015-10-23,107700.00000000028,1.6532679999999997,0.0630895898305659,1.04304
2015-10-26,-9900.000000000546,1.6512879999999996,0.06304533188638203,1.04106
2015-10-27,12600.000000000136,1.6538079999999997,0.06310164178671286,1.04358
2015-10-28,-98399.99999999987,1.6341279999999996,0.06265727042190086,1.0239
2015-10-29,40500.0,1.6422279999999998,0.06284145685008417,1.032
2015-10-30,-1200.0000000002728,1.6419879999999996,0.06283602559823825,1.03176
2015-11-02,-54299.99999999972,1.6311279999999997,0.06258858900098584,1.0209
2015-11-03,-39600.00000000014,1.6232079999999998,0.06240605024125068,1.01298
2015-11-04,321899.9999999999,1.6875879999999999,0.06384022640597115,1.07736
2015-11-05,70800.00000000041,1.7017479999999998,0.0641411066738436,1.09152
2015-11-06,171899.99999999985,1.736128,0.06485120912743761,1.1259
2015-11-09,33600.00000000014,1.742848,0.06498673435663925,1.13262
2015-11-10,899.9999999998636,1.7430279999999998,0.06499035012633188,1.1328
2015-11-11,45000.0,1.7520279999999997,0.06517019134397395,1.1418
2015-11-12,-73799.99999999972,1.7372679999999998,0.06487427385987654,1.12704
2015-11-13,-51900.000000000546,1.7268879999999998,0.06466313970564391,1.11666
2015-11-16,17400.000000000553,1.730368,0.06328133668676258,1.095
2015-11-17,-66600.00000000013,1.717048,0.06299649165311628,1.08168
2015-11-18,-14100.000000000136,1.7142279999999999,0.06293561883250069,1.07886
2015-11-19,138900.00000000055,1.742008,0.06352668874080945,1.10664
2015-11-20,-66000.0,1.728808,0.06324820338637951,1.09344
2015-11-23,-38400.000000000546,1.7211279999999998,0.06308420989025802,1.08576
2015-11-24,54600.00000000014,1.7320479999999998,0.06331695195514211,1.09668
2015-11-25,59100.00000000014,1.743868,0.06356559097362874,1.1085
2015-11-26,-49500.0,1.733968,0.06335757061260647,1.0986
2015-11-27,-261899.99999999985,1.6815879999999999,0.06221619088623373,1.04622
2015-11-30,-300.0000000004093,1.6815279999999997,0.0,0.0
2015-12-01,0.0,1.6815279999999997,0.0,0.0
2015-12-02,0.0,1.6815279999999997,0.0,0.0
2015-12-03,0.0,1.6815279999999997,0.0,0.0
2015-12-04,0.0,1.6815279999999997,0.0,0.0
2015-12-07,0.0,1.6815279999999997,0.0,0.0
2015-12-08,0.0,1.6815279999999997,0.0,0.0
2015-12-09,0.0,1.6815279999999997,0.0,0.0
2015-12-10,0.0,1.6815279999999997,0.0,0.0
2015-12-11,0.0,1.6815279999999997,0.0,0.0
2015-12-14,0.0,1.6815279999999997,0.0,0.0
2015-12-15,0.0,1.6815279999999997,0.0,0.0
2015-12-16,0.0,1.6815279999999997,0.0,0.0
2015-12-17,0.0,1.6815279999999997,0.0,0.0
2015-12-18,21360.00000000022,1.6858,0.052743623205599714,0.889152
2015-12-21,114479.99999999956,1.7086959999999998,0.05337684409631673,0.912048
2015-12-22,22560.00000000022,1.7132079999999998,0.05349963343622025,0.91656
2015-12-23,-16800.0,1.7098479999999996,0.0534082561724785,0.9132
2015-12-24,-35760.00000000022,1.7026959999999998,0.05321255232877743,0.906048
2015-12-25,37920.00000000044,1.7102799999999998,0.05342002479126225,0.913632
2015-12-28,-191040.00000000032,1.6720719999999996,0.05235564018774312,0.875424
2015-12-29,16080.00000000011,1.6752879999999997,0.0,0.0
2015-12-30,0.0,1.6752879999999997,0.0,0.0
2015-12-31,0.0,1.6752879999999997,0.0,0.0
2016-01-04,0.0,1.6752879999999997,0.0,0.0
2016-01-05,24299.999999999727,1.6801479999999995,0.06086606656080299,1.02264
2016-01-06,-84299.99999999972,1.6632879999999997,0.06249669329665099,1.0395
2016-01-07,329700.0000000003,1.7292279999999998,0.05630026809651475,0.97356
2016-01-08,-95700.00000000028,1.7100879999999998,0.05804964422883502,0.9927
2016-01-11,235799.99999999974,1.7572479999999997,0.053807999781476504,0.94554
2016-01-12,-67199.99999999959,1.7438079999999996,0.054993439644731544,0.95898
2016-01-13,65699.99999999959,1.7569479999999995,0.05383426259627491,0.94584
2016-01-14,-77699.99999999959,1.7414079999999998,0.05520705084621181,0.96138
2016-01-15,149100.00000000015,1.7712279999999998,0.05128306463086628,0.90834
2016-01-18,-21299.999999999727,1.7669679999999999,0.051647794413933926,0.9126
2016-01-19,-138000.0,1.7393679999999998,0.05405411620772602,0.9402
2016-01-20,90000.0,1.7573679999999998,0.052476203049105254,0.9222
2016-01-21,94500.0,1.776268,0.05085381260035085,0.9033
2016-01-22,-46500.0,1.7669679999999999,0.051647794413933926,0.9126
2016-01-25,-3299.999999999727,1.766308,0.0517044592449335,0.91326
2016-01-26,217799.99999999974,1.8098679999999998,0.048053228191227204,0.8697
2016-01-27,47100.00000000014,1.8192879999999998,0.047286630813812874,0.86028
2016-01-28,76199.99999999959,1.8345279999999997,0.046063074534703215,0.84504
2016-01-29,-130500.0,1.8084279999999997,0.04817111878382773,0.87114
2016-02-01,30000.0,1.8144279999999997,0.04768114248677821,0.86514
2016-02-02,-97500.0,1.7949279999999996,0.04928554237273028,0.88464
2016-02-03,14100.000000000136,1.7977479999999997,0.049051368712411315,0.88182
2016-02-04,-59100.00000000014,1.7859279999999997,0.05003785146993609,0.89364
2016-02-05,62400.000000000546,1.7984079999999998,0.04899666816428753,0.88116
2016-02-15,11099.999999999454,1.8006279999999997,0.04881296969723897,0.87894
2016-02-16,-130199.99999999959,1.7745879999999998,0.05099662569565443,0.90498
2016-02-17,-43200.00000000028,1.7659479999999999,0.05075687392833765,0.89634
2016-02-18,9000.0,1.7677479999999997,0.05060336654319508,0.89454
2016-02-19,1500.0,1.7680479999999998,0.05057781236708507,0.89424
2016-02-22,-91799.99999999972,1.749688,0.05215787043175698,0.9126
2016-02-23,38280.00000000004,1.7573439999999998,0.054750122912759255,0.962148
2016-02-24,-29339.999999999916,1.7514759999999998,0.05526858489639595,0.968016
2016-02-25,241439.9999999997,1.7997639999999997,0.05089733987345008,0.916032
2016-02-26,-57679.999999999745,1.7882279999999997,0.05979049651386736,1.025848
2016-02-29,154560.00000000012,1.81914,0.056924568752267556,0.994936
2016-03-01,-126919.9999999998,1.7937559999999997,0.059213137126788704,1.02032
2016-03-02,-254720.00000000017,1.7428119999999998,0.06403251756356967,1.071264
2016-03-03,-13520.000000000164,1.7401079999999998,0.061831196684343726,0.896608
2016-03-04,0.0,1.7401079999999998,0.0,0.0
2016-03-07,-28800.0,1.7343479999999998,0.0582582042358281,1.0104
2016-03-08,-9959.9999999994,1.7323559999999998,0.057683755532927414,0.999288
2016-03-09,-70380.00000000025,1.7182799999999998,0.05733710454640687,0.985212
2016-03-10,-67560.00000000015,1.7047679999999998,0.05699895821601532,0.9717
2016-03-11,12660.000000000287,1.7073,0.057062730627306275,0.974232
2016-03-14,55139.99999999992,1.7183279999999999,0.05733829629733089,0.98526
2016-03-15,21959.999999999538,1.7227199999999998,0.05744706046252438,0.989652
2016-03-16,47040.000000000466,1.732128,0.05767818544587929,0.99906
2016-03-17,73499.99999999985,1.7468279999999998,0.05803433423325021,1.01376
2016-03-18,41400.0,1.755108,0.057603292788819836,1.011
2016-03-21,136619.99999999988,1.782432,0.058253218075079445,1.038324
2016-03-22,-21220.000000000164,1.7781879999999999,0.06672617293559512,1.139144
2016-03-23,4680.000000000382,1.779124,0.06675608895164137,1.14008
2016-03-24,-96040.00000000015,1.759916,0.06634516647385443,1.120872
2016-03-25,36439.99999999978,1.767204,0.06651429037055144,1.12816
2016-03-28,-58559.99999999949,1.755492,0.06626655091564074,1.116448
2016-03-29,-38480.00000000029,1.7477960000000001,0.06608679731501846,1.108752
2016-03-30,159919.99999999988,1.7797800000000001,0.06680052590769645,1.140736
2016-03-31,5000.000000000182,1.78078,0.06681880973505992,1.141736
2016-04-01,18399.999999999727,1.78446,0.06689082411485828,1.145416
2016-04-05,60319.999999999985,1.7965239999999998,0.06718547595245039,1.15748
2016-04-06,-2040.0000000000546,1.796116,0.06719272029200786,1.157072
2016-04-07,-63519.99999999943,1.783412,0.06692878594514336,1.144368
2016-04-08,-41960.00000000058,1.77502,0.06675359150882808,1.135976
2016-04-11,69800.00000000036,1.78898,0.06706793815470267,1.149936
2016-04-12,80.00000000020009,1.788996,0.06706948478364401,1.149952
2016-04-13,65199.999999999636,1.8020359999999997,0.0673371675149664,1.162992
2016-04-14,36639.999999999694,1.809364,0.06750270260710393,1.17032
2016-04-15,4840.000000000509,1.8103319999999998,0.06674647523216737,1.158616
2016-04-18,-79719.99999999988,1.7943879999999999,0.06639687737546172,1.142672
2016-04-19,8719.99999999989,1.796132,0.06643369195582507,1.144416
2016-04-20,-147359.99999999994,1.76666,0.06573271597251311,1.114944
2016-04-21,2559.9999999998545,1.767172,0.0,0.0
2016-04-22,0.0,1.767172,0.0,0.0
2016-04-25,0.0,1.767172,0.0,0.0
2016-04-26,0.0,1.767172,0.0,0.0
2016-04-27,0.0,1.767172,0.0,0.0
2016-04-28,0.0,1.767172,0.0,0.0
2016-04-29,0.0,1.767172,0.0,0.0
2016-05-03,0.0,1.767172,0.0,0.0
2016-05-04,0.0,1.767172,0.0,0.0
2016-05-05,0.0,1.767172,0.0,0.0
2016-05-06,0.0,1.767172,0.0,0.0
2016-05-09,65100.000000000546,1.780192,0.05508956337293955,0.9807
2016-05-10,-4100.000000000273,1.779372,0.06355500704743022,1.08568
2016-05-11,-16080.0000000002,1.7761559999999998,0.06384682426543614,1.088896
2016-05-12,-20679.999999999745,1.77202,0.06424261577183102,1.093032
2016-05-13,4680.0000000002,1.772956,0.06415103364099278,1.092096
2016-05-16,-36760.000000000495,1.765604,0.06488576147312762,1.099448
2016-05-17,1840.0000000003274,1.765972,0.06485457300568752,1.09908
2016-05-18,56319.99999999962,1.7772359999999998,0.06280142873540712,1.072448
2016-05-19,-560.0000000000364,1.777124,0.062815650455455,1.07256
2016-05-20,-43479.99999999993,1.7684279999999999,0.06365870705507942,1.081256
2016-05-23,-23599.999999999818,1.7637079999999998,0.06412952710992977,1.085976
2016-05-24,29639.99999999951,1.7696359999999998,0.06356317344357823,1.080048
2016-05-25,7680.000000000291,1.771172,0.06340208630217732,1.078512
2016-05-26,-17239.999999999873,1.7677239999999999,0.0637533008546583,1.08196
2016-05-27,-11119.999999999982,1.7654999999999998,0.06396084961767205,1.084184
2016-05-30,-13240.000000000146,1.7628519999999999,0.06419824239357587,1.086832
2016-05-31,-218560.00000000015,1.71914,0.06851853833893691,1.130544
2016-06-01,7920.000000000073,1.720724,0.0,0.0
2016-06-02,0.0,1.720724,0.0,0.0
2016-06-03,21520.000000000073,1.725028,0.061423976886172287,1.011552
2016-06-06,-37000.00000000018,1.717628,0.06851262322225767,1.129
2016-06-07,13439.99999999969,1.720316,0.0685816326767873,1.131688
2016-06-08,-17599.999999999818,1.7167959999999998,0.06850752215172914,1.128168
2016-06-13,-204440.00000000015,1.6759079999999997,0.06761325800700278,1.08728
2016-06-14,15880.00000000011,1.6790839999999998,0.0,0.0
2016-06-15,0.0,1.6790839999999998,0.0,0.0
2016-06-16,0.0,1.6790839999999998,0.0,0.0
2016-06-17,-16320.000000000437,1.6758199999999999,0.05914716377653926,0.9912
2016-06-20,-9600.0,1.6738999999999997,0.05932970906266803,0.99312
2016-06-21,479.99999999956344,1.6739959999999996,0.0593205718532183,0.993024
2016-06-22,-26879.999999999563,1.6686199999999998,0.05983387469885296,0.9984
2016-06-23,3760.0000000002183,1.6693719999999996,0.0616600733689076,0.982232
2016-06-24,28759.999999999673,1.6751239999999996,0.06057438135923073,0.9684
2016-06-27,-10439.999999999876,1.6730359999999997,0.06171209704991406,0.984744
2016-06-28,3560.0000000000364,1.6737479999999998,0.06202080599946947,0.989776
2016-06-29,-35480.00000000057,1.6666519999999996,0.06278138447618342,0.997944
2016-06-30,-7679.9999999994725,1.6651159999999996,0.0697793547116237,0.968256
2016-07-01,-9440.000000000146,1.6632279999999997,0.06972234714663295,0.966368
2016-07-04,95840.00000000015,1.6823959999999998,0.070295174263372,0.985536
2016-07-05,20919.9999999998,1.6865799999999997,0.07075829192804374,1.143776
2016-07-06,9999.999999999818,1.6885799999999995,0.07080439185587892,1.145776
2016-07-07,13320.000000000346,1.6912439999999997,0.07087535565536375,1.14844
2016-07-08,-20999.999999999818,1.6870439999999998,0.07079601954661528,1.14424
2016-07-11,9559.999999999673,1.6889559999999997,0.07082102790125973,1.146152
2016-07-12,132600.00000000017,1.7154759999999998,0.07132835434596581,1.172672
2016-07-13,13759.999999999854,1.7182279999999996,0.07139653177575969,1.175424
2016-07-14,3240.0000000001455,1.7188759999999996,0.07114984443322266,1.17144
2016-07-15,-5640.0000000001455,1.7177479999999996,0.07086767092728388,1.166776
2016-07-18,-33280.00000000011,1.7110919999999996,0.07072956918739613,1.16012
2016-07-19,-30439.999999999964,1.7050039999999997,0.07062824486042263,1.154032
2016-07-20,-15400.0,1.7019239999999995,0.07057161189336306,1.150952
2016-07-21,40239.99999999996,1.7099719999999996,0.07073098272954179,1.159
2016-07-22,-49479.99999999993,1.7000759999999997,0.07054301101833096,1.149104
2016-07-25,9439.999999999964,1.7019639999999996,0.07058405465685527,1.150992
2016-07-26,82639.99999999978,1.7184919999999995,0.07091491842848266,1.16752
2016-07-27,-135359.99999999985,1.6914199999999995,0.07031261307067437,1.140448
2016-07-28,30800.000000000273,1.6975799999999999,0.060725267734068514,1.03086
2016-07-29,-17220.000000000164,1.6941359999999999,0.06064542634121465,1.027416
2016-08-01,-39419.99999999989,1.6862519999999996,0.06046142569438021,1.019532
2016-08-02,10959.999999999854,1.6884439999999996,0.055298487838506945,0.88502
2016-08-03,-7219.9999999998,1.6869999999999998,0.05536246591582693,0.885144
2016-08-04,-46040.0000000001,1.6777919999999997,0.0705475768152429,0.986368
2016-08-05,14080.000000000291,1.6806079999999999,0.07022829833012814,0.983552
2016-08-08,-80800.0,1.6644479999999997,0.07207521052024456,0.999712
2016-08-09,319.99999999970896,1.6645119999999998,0.0,0.0
2016-08-10,-15000.0,1.6615119999999997,0.05839620779145743,0.97026
2016-08-11,-12000.0,1.6591119999999997,0.058336025536552094,0.96786
2016-08-12,92700.00000000028,1.6776519999999997,0.05879646076778736,0.9864
2016-08-15,153299.9999999997,1.7083119999999998,0.06378577215403276,1.08966
2016-08-16,-12679.999999999927,1.7057759999999997,0.061803050341897196,1.002556
2016-08-17,-18120.00000000021,1.7021519999999997,0.06149612960534666,0.995724
2016-08-18,-15059.999999999764,1.6991399999999999,0.06142815777393269,0.992712
2016-08-19,5840.000000000282,1.700308,0.06145738301531252,0.99388
2016-08-22,-30580.000000000247,1.6941919999999997,0.06128755182411439,0.987764
2016-08-23,300.0,1.6942519999999999,0.06128325656395861,0.987824
2016-08-24,-15380.000000000382,1.6911759999999996,0.06121548555561338,0.984748
2016-08-25,-27839.999999999964,1.6856079999999998,0.0610711387226449,0.97918
2016-08-26,-3339.9999999997362,1.6849399999999997,0.061055325412180846,0.978512
2016-08-29,2879.9999999997,1.6855159999999998,0.061091416515773225,0.979088
2016-08-30,21560.000000000036,1.6898279999999999,0.06119202664413184,0.9834
2016-08-31,16220.000000000027,1.6930719999999997,0.06127252709867036,0.986644
2016-09-01,-41959.99999999981,1.6846799999999997,0.061049220029916675,0.978252
2016-09-02,12200.000000000273,1.6871199999999997,0.06110175921096306,0.980692
2016-09-05,12919.999999999663,1.6897039999999999,0.06117933081770536,0.983276
2016-09-06,47480.00000000015,1.6991999999999998,0.06146059322033899,0.992772
2016-09-07,1799.999999999909,1.6995599999999997,0.06146084869024925,0.993132
2016-09-08,4959.9999999998545,1.7005519999999996,0.06150600510892935,0.994124
2016-09-09,-19159.99999999958,1.6967199999999998,0.06140388514309963,0.990292
2016-09-12,-104760.00000000035,1.6757679999999997,0.06083109356426428,0.96934
2016-09-13,14379.999999999882,1.6786439999999998,0.0,0.0
2016-09-14,0.0,1.6786439999999998,0.0,0.0
2016-09-19,-32120.000000000073,1.6722199999999998,0.07211338221047471,1.156104
2016-09-20,1480.0000000000182,1.6725159999999997,0.07207995618577044,1.155808
2016-09-21,-24479.999999999563,1.6676199999999999,0.07259984888643697,1.160704
2016-09-22,-40320.00000000016,1.6595559999999998,0.07346022671124085,1.168768
2016-09-23,13799.999999999727,1.6623159999999997,0.07317482355941952,1.166008
2016-09-26,73959.99999999994,1.6771079999999996,0.07160097024163026,1.151216
2016-09-27,-29759.999999999673,1.6711559999999999,0.07223340011345442,1.157168
2016-09-28,8399.999999999727,1.6728359999999998,0.07205784667474877,1.155488
2016-09-29,-35680.000000000015,1.6656999999999997,0.07282358167737289,1.162624
2016-09-30,-8679.999999999927,1.6639639999999996,0.0730129257604131,1.16436
2016-10-10,-63639.999999999556,1.651236,0.06386634012339848,1.054584
2016-10-11,-5160.000000000082,1.6502039999999998,0.05884305213173644,0.919392
2016-10-12,9600.000000000091,1.6521239999999997,0.0749371354692505,1.031712
2016-10-13,11040.000000000146,1.6543319999999997,0.07499727986885342,1.03392
2016-10-14,4000.0,1.6551319999999998,0.07501903171469104,1.03472
2016-10-17,-39200.0,1.6472919999999998,0.0748049526131372,1.02688
2016-10-18,69919.99999999971,1.6612759999999998,0.07518538761771075,1.040864
2016-10-19,-14599.999999999636,1.658356,0.07485061108712485,1.18936
2016-10-20,9199.999999999545,1.6601959999999996,0.07431315338670857,1.1824
2016-10-21,14680.000000000018,1.6631319999999996,0.0743482056745947,1.185336
2016-10-24,84680.00000000029,1.680068,0.07464240733113184,1.202272
2016-10-25,-6840.0000000001455,1.6786999999999999,0.07462917733960803,1.200904
2016-10-26,-18679.999999999563,1.674964,0.07456494587346355,1.197168
2016-10-27,-9280.0000000002,1.673108,0.07453061009809289,1.195312
2016-10-28,-3080.000000000018,1.6724919999999999,0.07449865231044453,1.194696
2016-10-31,-10159.999999999764,1.6704599999999998,0.07446600337631551,1.192664
2016-11-01,38959.99999999977,1.678252,0.07461191763811394,1.200456
2016-11-02,-42040.00000000033,1.6698439999999999,0.07445294290963707,1.192048
2016-11-03,53440.00000000033,1.680532,0.07463208079346302,1.202736
2016-11-04,-10519.999999999982,1.678428,0.07459294053721698,1.200632
2016-11-07,7479.999999999927,1.679924,0.0746105180948662,1.202128
2016-11-08,39479.99999999984,1.6878199999999999,0.07475773482954344,1.210024
2016-11-09,-43639.99999999978,1.679092,0.07459603166473308,1.201296
2016-11-10,65359.99999999994,1.692164,0.07483671795405174,1.214368
2016-11-11,60920.00000000016,1.704348,0.07504664540340353,1.226552
2016-11-14,17680.00000000002,1.707884,0.07510936339938779,1.230088
2016-11-15,-8360.00000000031,1.7062119999999998,0.07477392023968886,1.223648
2016-11-16,-2760.0000000000364,1.70566,0.07463405368010037,1.220696
2016-11-17,12520.000000000073,1.708164,0.07467526537264572,1.2232
2016-11-18,-21719.9999999998,1.70382,0.0745918230799028,1.218856
2016-11-21,45279.99999999965,1.7128759999999998,0.07473381610811292,1.227912
2016-11-22,61240.00000000033,1.7251239999999999,0.0749458473709716,1.24016
2016-11-23,6480.000000000018,1.72642,0.07494991948656757,1.241456
2016-11-24,8319.999999999982,1.728084,0.0749674668592499,1.24312
2016-11-25,76039.99999999997,1.7432919999999998,0.07519373690695534,1.258328
2016-11-28,31159.999999999945,1.7495239999999999,0.07529654923281989,1.26456
2016-11-29,59519.99999999989,1.761428,0.07544551352652507,1.276464
2016-11-30,-52039.99999999996,1.75102,0.07528786650066818,1.266056
2016-12-01,46199.99999999982,1.76026,0.07543612875370684,1.275296
2016-12-02,-79159.99999999994,1.7444279999999999,0.0751494472686749,1.259464
2016-12-05,-102280.00000000012,1.7239719999999998,0.057031552716633446,0.983208
2016-12-06,-7079.999999999836,1.722556,0.05699623118203414,0.981792
2016-12-07,11400.0,1.7248359999999998,0.05705307635044723,0.984072
2016-12-08,7200.0,1.726276,0.0570889011954056,0.985512
2016-12-09,48959.99999999994,1.736068,0.05733093404175413,0.995304
2016-12-12,-85799.99999999972,1.7189079999999999,0.056904965245376714,0.978144
2016-12-13,-21320.000000000255,1.7146439999999998,0.05061902062468944,0.818088
2016-12-14,-12279.999999999563,1.712188,0.05051221010776854,0.815072
2016-12-15,-64400.00000000035,1.6993079999999998,0.06154326349313956,0.996608
2016-12-16,-32719.9999999998,1.692764,0.0704215354296287,1.0928
2016-12-19,15699.999999999773,1.6959039999999999,0.07009995848821632,1.08966
2016-12-20,28179.999999999927,1.70154,0.06952318487957966,1.084024
2016-12-21,-61520.00000000007,1.689236,0.07082690636477082,1.096328
2016-12-22,17640.000000000146,1.692764,0.0704504585399973,1.0928
2016-12-23,30779.999999999927,1.6989199999999998,0.06980910225319614,1.086644
2016-12-26,-15339.999999999918,1.695852,0.07012574210485348,1.089712
2016-12-27,799.999999999909,1.6960119999999999,0.07010610773980373,1.089552
2016-12-28,7300.0,1.6974719999999999,0.06996168419862006,1.088092
2016-12-29,-559.9999999999909,1.6973599999999998,0.06997082528161379,1.088204
2016-12-30,279.99999999992724,1.697416,0.06996031615113797,1.088148
2017-01-03,-62979.99999999993,1.6848199999999998,0.07129288588691966,1.100744
2017-01-04,-65640.0,1.671692,0.07272535849905365,1.113872
2017-01-05,14239.999999999918,1.67454,0.0600308144326203,1.00524
2017-01-06,21600.00000000014,1.6788599999999998,0.05961902719702655,1.00092
2017-01-09,-18899.99999999959,1.67508,0.06542374095565585,1.0959
2017-01-10,12239.999999999645,1.677528,0.06518233972845759,1.093452
2017-01-11,25560.00000000022,1.68264,0.06468050206817857,1.08834
2017-01-12,25499.999999999593,1.6877399999999998,0.06418287176934837,1.08324
2017-01-13,-26819.999999999618,1.6823759999999999,0.06470634388507682,1.088604
2017-01-16,13540.000000000327,1.685084,0.07374939172171832,1.194648
2017-01-17,-29640.00000000051,1.6791559999999999,0.07021456017189588,1.081972
2017-01-18,-30159.999999999993,1.673124,0.07083663852768832,1.088004
2017-01-19,-59.999999999989086,1.673112,0.07618019594623672,1.17866
2017-01-20,-5719.999999999527,1.6719680000000001,0.07708812608853757,1.191564
2017-01-23,-17059.999999999854,1.6685560000000002,0.07737248255377703,1.193176
2017-01-24,3079.9999999993815,1.6691719999999999,0.07747362165193282,1.1952
2017-01-25,-1399.9999999994543,1.668892,0.07780731167744827,1.20004
2017-01-26,3499.9999999995453,1.6695919999999997,0.07606495479135021,1.220464
2017-02-03,-35199.99999999991,1.6625519999999998,0.07583762793584801,1.21152
2017-02-06,-8959.999999999854,1.6607599999999998,0.07599489390399576,1.212496
2017-02-07,-10159.999999999854,1.658728,0.07590076251199714,1.209488
2017-02-08,12639.99999999969,1.6612559999999998,0.07625102934165476,1.216752
2017-02-09,15079.999999999745,1.6642719999999998,0.05828133862733977,0.96996
2017-02-10,27000.000000000273,1.6696719999999998,0.05841626379312824,0.97536
2017-02-13,24880.000000000247,1.674648,0.0643849692592115,1.02758
2017-02-14,179.9999999994252,1.6746839999999998,0.06400610503235238,1.021876
2017-02-15,-15300.000000000227,1.6716239999999998,0.06391494738051141,1.018816
2017-02-16,16980.00000000011,1.67502,0.058374467170541254,0.977784
2017-02-17,-27240.000000000055,1.6695719999999998,0.058238638405531486,0.972336
2017-02-20,87719.99999999988,1.6871159999999998,0.05867290690148158,0.98988
2017-02-21,-1379.9999999998363,1.6868399999999997,0.06433236110123071,1.034456
2017-02-22,15660.000000000127,1.6899719999999998,0.06442146970482351,1.037588
2017-02-23,-15379.999999999702,1.686896,0.06436038736235074,1.034512
2017-02-24,4099.999999999591,1.6877159999999998,0.0643838655318786,1.035332
2017-02-27,-40119.999999999665,1.6796919999999997,0.06418390990729253,1.027308
2017-02-28,2199.9999999995453,1.680132,0.06420681232188899,1.027748
2017-03-01,8180.000000000246,1.681768,0.0642518111891771,1.029384
2017-03-02,-26880.0000000002,1.6763919999999999,0.06413344850130519,1.024008
2017-03-03,-6899.999999999818,1.675012,0.07323099774807583,1.12434
2017-03-06,42020.00000000007,1.6834159999999998,0.07342812471783562,1.132744
2017-03-07,11619.999999999845,1.68574,0.07346969283519404,1.135068
2017-03-08,-8139.999999999691,1.684112,0.07342941562081383,1.13344
2017-03-09,-47459.99999999999,1.67462,0.07322262961149395,1.123948
2017-03-10,12219.999999999754,1.6770639999999999,0.07838570263269619,1.212012
2017-03-13,-4519.999999999985,1.6761599999999999,0.07926102520045819,1.224788
2017-03-14,1560.0000000000364,1.676472,0.06448541938069947,1.02932
2017-03-15,-539.9999999998272,1.676364,0.06451577342391032,1.029788
2017-03-16,2439.999999999918,1.6768519999999998,0.06472242034478892,1.033544
2017-03-17,-77879.99999999993,1.661276,0.07395857160399597,1.126096
2017-03-20,22559.999999999854,1.665788,0.07407809397114158,1.02832
2017-03-21,14400.0,1.6686679999999998,0.07415735185189624,1.0312
2017-03-22,-12959.999999999854,1.666076,0.0740860320897726,1.028608
2017-03-23,16959.999999999854,1.669468,0.07417931939995256,1.032
2017-03-24,62240.000000000146,1.6819159999999997,0.0745184420625049,1.044448
2017-03-27,-33019.999999999985,1.675312,0.07432153533192624,1.141428
2017-03-28,-8060.000000000218,1.6736999999999997,0.07428399354723068,1.139816
2017-03-29,-10699.999999999864,1.67156,0.0742284811792577,1.137676
2017-03-30,-53380.00000000029,1.6608839999999998,0.07398845434118217,1.127
2017-03-31,4340.000000000375,1.661752,0.0,0.0
2017-04-05,0.0,1.661752,0.0,0.0
2017-04-06,-3220.0000000001637,1.661108,0.05737664257832724,0.9008
2017-04-07,4540.000000000055,1.662016,0.057409555624013245,0.901708
2017-04-10,-9200.0,1.6601759999999999,0.05735753317720531,0.899868
2017-04-11,9199.999999999909,1.662016,0.057431793677076515,0.901708
2017-04-12,-15940.00000000001,1.6588279999999997,0.05732760720219335,0.89852
2017-04-13,12640.0000000001,1.661356,0.05741863875051464,0.901048
2017-04-14,-43559.999999999854,1.652644,0.057150021420221166,0.892336
2017-04-17,-33459.999999999985,1.6459519999999999,0.07555379500738782,1.140488
2017-04-18,-8660.000000000036,1.6442199999999998,0.06317767695320578,1.03878
2017-04-19,-33899.99999999986,1.6374399999999998,0.06302521008403361,1.032
2017-04-20,-11599.999999999454,1.6351200000000001,0.06119095846176427,0.950048
2017-04-21,1099.9999999995907,1.6353399999999998,0.0611438355326721,0.949828
2017-04-24,38460.000000000175,1.6430319999999998,0.06031551424439694,0.942136
2017-04-25,-17960.000000000262,1.6394399999999998,0.06464719660371836,1.010828
2017-04-26,-4360.000000000082,1.6385679999999998,0.06474165246727631,1.0117
2017-04-27,-10259.999999999673,1.6365159999999999,0.06495701844650464,1.013752
2017-04-28,3359.999999999991,1.6371879999999999,0.06489927851902164,1.01308
2017-05-02,13660.000000000036,1.63992,0.06462242060588322,1.010348
2017-05-03,13140.00000000001,1.642548,0.06434938887630681,1.00772
2017-05-04,19420.00000000003,1.646432,0.06394584167460303,1.003836
2017-05-05,28219.99999999971,1.6520759999999997,0.06335388928838626,0.998192
2017-05-08,23060.0000000004,1.656688,0.06284765749495379,0.99358
2017-05-09,-8480.000000000064,1.654992,0.06303184547115635,0.995276
2017-05-10,26079.999999999927,1.660208,0.062449861704075633,0.99006
2017-05-11,-18360.00000000008,1.656536,0.06280271602911135,0.993732
2017-05-12,-45900.00000000014,1.6473559999999998,0.06370994490565489,1.002912
2017-05-15,-37619.99999999985,1.639832,0.07157811287985598,1.079732
2017-05-16,-96760.00000000009,1.62048,0.0734995556872038,1.095468
2017-05-17,-3579.9999999998363,1.619764,0.07090336616939258,0.957056
2017-05-18,43260.00000000013,1.6284159999999999,0.07220415422103443,1.081064
2017-05-19,-3740.0000000001455,1.627668,0.07227699997788248,1.081812
2017-05-22,33640.00000000033,1.634396,0.07148460960501615,1.075084
2017-05-23,34160.00000000013,1.641228,0.06785163304550007,1.067872
2017-05-24,-11300.0,1.638968,0.06803818012310185,1.069052
2017-05-25,8579.999999999927,1.640684,0.06957712758824978,1.095056
2017-05-26,-3440.0000000000546,1.639996,0.06209898072922129,0.971904
2017-05-31,21299.99999999986,1.644256,0.061972393593211765,0.972804
2017-06-01,49919.999999999796,1.6542400000000002,0.06164014895057549,0.97434
2017-06-02,-51139.999999999825,1.644012,0.06186290611017438,0.971008
2017-06-05,-48460.000000000175,1.63432,0.06175412403935582,0.96306
2017-06-06,19660.000000000175,1.638252,0.06201888354172618,0.969568
2017-06-07,1640.0000000001019,1.6385800000000001,0.06280413528787121,0.98148
2017-06-08,53640.00000000019,1.649308,0.0637241800803731,1.051008
2017-06-09,25619.999999999618,1.654432,0.06383653120829384,1.056132
2017-06-12,-12179.999999999427,1.651996,0.06378320528621136,1.0536960000000002
2017-06-13,-3780.000000000382,1.65124,0.06376662387054577,1.05294
2017-06-14,-67619.99999999962,1.637716,0.06346741437465349,1.0394160000000001
2017-06-15,-15540.000000001139,1.6346079999999998,0.06266823605414877,1.02438
2017-06-16,-26040.00000000019,1.6294,0.06254891371056831,1.019172
2017-06-19,88620.00000000057,1.6471239999999998,0.06295190890303343,1.0368960000000003
2017-06-20,-15320.000000000207,1.6440599999999999,0.062390131747016526,0.977496
2017-06-21,39619.999999999665,1.6519839999999997,0.06257276099526389,0.98542
2017-06-22,-4039.9999999995543,1.651176,0.06251122836087733,0.984612
2017-06-23,41280.000000000065,1.6594319999999998,0.06270179193844641,0.992868
2017-06-26,40919.999999999935,1.6676159999999998,0.0629484485636981,1.001052
2017-06-27,10339.99999999969,1.6696839999999997,0.06298245656064262,1.00312
2017-06-28,-33200.00000000014,1.6630439999999997,0.06282840381853999,0.99648
2017-06-29,30480.0000000002,1.6691399999999998,0.0629768144074194,1.002576
2017-06-30,-7439.999999999964,1.667652,0.06295471717120839,1.001088
2017-07-03,-12739.999999999964,1.665104,0.0629214751751242,0.99854
2017-07-04,-45000.00000000014,1.6561039999999998,0.0627069314487496,0.98954
2017-07-05,82580.00000000006,1.6726199999999998,0.06309545503461636,1.006056
2017-07-06,-3899.9999999998636,1.6718399999999998,0.06307105943152455,1.005276
2017-07-07,-4639.999999999964,1.670912,0.06306816876053319,1.004348
2017-07-10,15559.999999999629,1.6740239999999997,0.06312812719530904,1.00746
2017-07-11,34880.000000000204,1.6809999999999996,0.06325420582986319,1.014436
2017-07-12,-23499.99999999986,1.6762999999999997,0.06314020163455229,1.009736
2017-07-13,69359.99999999977,1.6901719999999996,0.06345351834014529,1.023608
2017-07-14,39939.999999999825,1.6981599999999997,0.06361845762472323,1.031596
2017-07-17,-46659.99999999931,1.6888279999999998,0.06329056600198482,1.022264
2017-07-18,-20340.000000000648,1.6847599999999996,0.05596714072034,0.942912
2017-07-19,79200.0,1.7005999999999997,0.05637727860755029,0.958752
2017-07-20,12240.000000000327,1.7030479999999997,0.05643998290124531,0.9612
2017-07-21,-50400.00000000082,1.6929679999999996,0.0561423488217143,0.950472
2017-07-24,41040.00000000033,1.7011759999999996,0.05635395749763694,0.95868
2017-07-25,-36359.99999999967,1.6939039999999999,0.05616658323021849,0.951408
2017-07-26,-19440.000000000327,1.6900159999999995,0.05606574138943064,0.94752
2017-07-27,1800.0,1.6903759999999997,0.0560750980846865,0.94788
2017-07-28,4679.999999999836,1.6913119999999995,0.056099406851012716,0.948816
2017-07-31,22400.000000000273,1.6957919999999997,0.05507826431543493,0.883888
2017-08-01,48480.00000000011,1.7054879999999997,0.05532520897244661,0.893584
2017-08-02,1320.0000000000728,1.7057519999999997,0.05532171147974618,0.893848
2017-08-03,-47040.00000000033,1.6963439999999996,0.05507788514593739,0.88444
2017-08-04,-33239.99999999996,1.6896959999999996,0.05487813192432249,0.877792
2017-08-07,29760.000000000036,1.6956479999999996,0.05508124327690654,0.883744
2017-08-08,-119.99999999970896,1.6956239999999996,0.05507692743202504,0.88372
2017-08-09,-14000.000000000364,1.6928239999999997,0.05502398359191506,0.88092
2017-08-10,-25760.000000000036,1.6876719999999996,0.05485520883204795,0.875768
2017-08-11,-74439.99999999959,1.6727839999999996,0.054399946436599116,0.86088
2017-08-14,-380.0000000003347,1.6727079999999996,0.057654964285458084,0.914108
2017-08-15,-5019.999999999891,1.6717039999999996,0.05769935347406001,0.91422
2017-08-16,7759.999999999718,1.6732559999999994,0.05747801890445935,0.911676
2017-08-17,-14359.999999999945,1.6703839999999994,0.05806276880046745,0.919316
2017-08-18,-3619.999999999527,1.6696599999999995,0.07229179593450165,1.005856
2017-08-21,57759.999999999854,1.6812119999999995,0.07261961013840017,1.017408
2017-08-22,-18240.000000000146,1.6775639999999996,0.07251657760896159,1.01376
2017-08-23,-40640.000000000146,1.6694359999999997,0.07228539458835201,1.005632
2017-08-24,-29279.999999999563,1.6635799999999996,0.0721174334868176,0.999776
2017-08-25,62879.99999999956,1.6761559999999998,0.07247669071375219,1.012352
2017-08-28,52920.00000000021,1.6867399999999995,0.0612273616562126,0.981404
2017-08-29,-5060.000000000082,1.6857279999999997,0.06119079709182028,0.980392
2017-08-30,-6540.0000000002365,1.6844199999999996,0.06118146305553249,0.979084
2017-08-31,-1379.9999999998363,1.6841439999999994,0.06118963699066114,0.978808
2017-09-01,8499.999999999864,1.6858439999999995,0.06125933360382101,0.980508
2017-09-04,5800.0,1.6870039999999995,0.06129545632375503,0.981668
2017-09-05,20920.00000000003,1.6911879999999995,0.061400956014352054,0.985852
2017-09-06,-12339.999999999782,1.6887199999999996,0.06135610403145579,0.983384
2017-09-07,-33620.000000000255,1.6819959999999994,0.061180597337924726,0.97666
2017-09-08,-6499.999999999773,1.6806959999999993,0.06115237972839826,0.97536
2017-09-11,20939.999999999964,1.6848839999999994,0.06130050496057891,0.979548
2017-09-12,14479.99999999979,1.6877799999999994,0.06135970327886339,0.982444
2017-09-13,-2360.000000000082,1.6873079999999994,0.06136548869560273,0.981972
2017-09-14,-19299.999999999818,1.6834479999999994,0.061276808074855915,0.978112
2017-09-15,-7199.999999999636,1.6820079999999995,0.06112836562013975,0.97548
2017-09-18,34640.000000000146,1.6889359999999995,0.06133063656645368,0.982408
2017-09-19,-35300.00000000018,1.6818759999999995,0.06113130813448793,0.975348
2017-09-20,18279.99999999997,1.6855319999999996,0.0612478908736233,0.979004
2017-09-21,-7360.000000000082,1.6840599999999997,0.06117886536109166,0.977532
2017-09-22,-16620.00000000003,1.6807359999999996,0.06107238733507227,0.974208
2017-09-25,-28479.999999999927,1.6750399999999996,0.06089636068392398,0.968512
2017-09-26,12740.000000000418,1.6775879999999996,0.06569002639503861,1.102008
2017-09-27,-16800.0,1.6742279999999996,0.06562116987650429,1.098648
2017-09-28,18359.999999999673,1.6778999999999995,0.05479706776327554,0.91944
2017-09-29,21839.99999999978,1.6822679999999997,0.05491443693870419,0.923808
2017-10-09,47520.00000000044,1.6917719999999996,0.05516771763570979,0.933312
2017-10-10,9739.999999999873,1.6937199999999997,0.060408804288784465,0.96942
2017-10-11,-2960.0000000001273,1.6931279999999997,0.06036840687768439,0.968828
2017-10-12,10300.000000000091,1.6951879999999995,0.060411564970964886,0.970888
2017-10-13,29660.000000000036,1.7011199999999995,0.060583380361173826,0.97682
2017-10-16,-36579.99999999993,1.6938039999999996,0.06035862472871715,0.969504
2017-10-17,-10339.999999999873,1.6917359999999997,0.061587056136418454,0.989156
2017-10-18,34939.99999999974,1.6987239999999995,0.06659492654486546,1.131264
2017-10-19,-3479.9999999998363,1.6980279999999994,0.0665812342317088,1.130568
2017-10-20,-35540.00000000006,1.6909199999999995,0.06159321552764178,0.989252
2017-10-23,-4560.000000000264,1.6900079999999993,0.061813056506241415,0.992036
2017-10-24,20419.99999999998,1.6940919999999995,0.06182511929694493,0.994888
2017-10-25,-1919.9999999998909,1.6937079999999995,0.06201909656209927,0.997624
2017-10-26,28859.999999999854,1.6994799999999994,0.06226615199943515,1.00522
2017-10-27,51340.000000000415,1.7097479999999994,0.0579306424104605,0.990468
2017-10-30,-42480.00000000025,1.7012519999999993,0.057720549336606246,0.981972
2017-10-31,-7859.9999999998545,1.6996799999999994,0.06210561988138947,1.003536
2017-11-01,-3920.0000000002547,1.6988959999999993,0.06195034893248324,1.000624
2017-11-02,15340.000000000055,1.7019639999999994,0.06180694773802504,1.000412
2017-11-03,6060.000000000082,1.7031759999999994,0.06143111457653234,0.995384
2017-11-06,-9100.0,1.7013559999999992,0.061974331062987435,1.002604
2017-11-07,32739.999999999964,1.7079039999999992,0.0623231282320318,1.012304
2017-11-08,-9280.000000000018,1.7060479999999993,0.06241934576283906,1.012576
2017-11-09,9900.000000000044,1.7080279999999992,0.06276894758165559,1.019308
2017-11-10,50740.00000000005,1.7181759999999993,0.05877092917140039,1.009788
2017-11-13,16439.999999999643,1.7214639999999992,0.058849676786735035,1.013076
2017-11-14,-29339.999999999643,1.7155959999999992,0.05870612894877352,1.00716
2017-11-15,-31020.000000000575,1.7093919999999994,0.05867419526942916,1.002972
2017-11-16,47279.99999999997,1.7188479999999993,0.058901543359273216,1.012428
2017-11-17,52259.99999999981,1.7292999999999994,0.059149945064476975,1.02288
2017-11-20,800.0000000001364,1.729459999999999,0.06277293490453671,1.034516
2017-11-21,69559.99999999972,1.743371999999999,0.06321335893888398,1.0507
2017-11-22,26800.000000000502,1.7487319999999993,0.06311073394894132,1.052636
2017-11-23,-78680.00000000012,1.732995999999999,0.06192775978709706,1.02354
2017-11-24,-4060.000000000173,1.7321839999999993,0.06200542205677921,1.024232
2017-11-27,-27639.99999999978,1.7266559999999993,0.061419993328144136,1.011424
2017-11-28,-42500.000000000364,1.7181559999999991,0.05799259205799708,0.946304
2017-11-29,-9360.000000000036,1.716283999999999,0.058002148828515586,0.945296
2017-11-30,-28079.999999999927,1.7106679999999992,0.05748771824807621,0.933824
2017-12-01,-25819.99999999989,1.705503999999999,0.061646997016717664,1.00116
2017-12-04,-10480.000000000018,1.7034079999999991,0.07738984435907313,1.218524
2017-12-05,37940.00000000023,1.7109959999999993,0.07647615774671598,1.210936
2017-12-06,-27600.0,1.705475999999999,0.06155161374302544,1.000692
2017-12-07,53780.00000000002,1.7162319999999993,0.07545399456483742,1.197596
2017-12-08,-79819.99999999994,1.7002679999999992,0.07718453796695583,1.21356
2017-12-11,-101100.00000000023,1.6800479999999993,0.07940901688523189,1.23378
2017-12-12,32600.0,1.6865679999999994,0.07088629690590598,0.996288
2017-12-13,-37600.0,1.6790479999999992,0.07174122478928538,1.003808
2017-12-14,-7519.999999999709,1.6775439999999993,0.07155374762152292,1.000288
2017-12-15,35840.000000000146,1.6847119999999993,0.07073873754089723,0.99312
2017-12-18,-619.9999999999818,1.6845879999999993,0.06207419262157871,0.9964
2017-12-19,-72159.99999999999,1.6701559999999993,0.06350927697771948,1.010832
2017-12-20,17820.000000000073,1.6737199999999994,0.0631249671390675,1.007268
2017-12-21,-49959.99999999999,1.6637279999999994,0.06413764750007216,1.01726
2017-12-22,-9059.999999999854,1.6619159999999993,0.07212725552916034,0.998912
2017-12-25,64959.999999999854,1.6749079999999994,0.07063695438794253,0.98592
2017-12-26,-45919.99999999971,1.6657239999999995,0.07168803475245601,0.995104
2017-12-27,50559.999999999854,1.6758359999999994,0.07053138851295714,0.984992
2017-12-28,-39840.000000000146,1.6678679999999995,0.07144162487678883,0.99296
2017-12-29,-59840.000000000146,1.6558999999999995,0.0728252672262818,1.004928
2018-01-02,-9759.999999999854,1.6539479999999993,0.0,0.0
2018-01-03,30559.999999999854,1.6600599999999994,0.07388494391768974,1.022112
2018-01-04,10440.000000000327,1.6621479999999995,0.06686220480968001,1.00884
2018-01-05,5039.999999999782,1.6631559999999994,0.06687651669476585,1.009848
2018-01-08,14839.999999999964,1.6661239999999995,0.06540017429675103,1.038184
2018-01-09,37120.00000000016,1.6735479999999994,0.06555461809281839,1.045608
2018-01-10,17300.000000000047,1.6770079999999994,0.06561213780733308,1.049068
2018-01-11,919.9999999997544,1.6771919999999994,0.06562382839889533,1.049252
2018-01-12,26620.00000000003,1.6825159999999995,0.06572214469282911,1.054576
2018-01-15,-6980.000000000153,1.6811199999999995,0.06563267345579141,1.05318
2018-01-16,38400.00000000045,1.6887999999999996,0.06579493131217436,1.06086
2018-01-17,-8020.000000000073,1.6871959999999997,0.06574553282487632,1.059256
2018-01-18,44619.99999999975,1.6961199999999994,0.063334433884395,1.074228
2018-01-19,-1619.9999999994798,1.6957959999999996,0.06371733392459944,1.080516
2018-01-22,41339.99999999964,1.7040639999999994,0.06389337489671752,1.088784
2018-01-23,71579.99999999997,1.7183799999999994,0.06419418289319012,1.1031
2018-01-24,-3539.9999999997817,1.7176719999999994,0.06417942424397675,1.102392
2018-01-25,-25780.00000000011,1.7125159999999995,0.05539989115430165,0.897636
2018-01-26,23959.999999999945,1.7173079999999994,0.055529002368823785,0.902428
2018-01-29,-78940.00000000015,1.7015199999999995,0.0550764963091824,0.88664
2018-01-30,-40039.99999999987,1.6935119999999995,0.05485962898402848,0.878632
2018-01-31,43079.99999999988,1.7021279999999994,0.06322086235582755,1.0761
2018-02-01,42879.99999999993,1.7107039999999993,0.05365019313686064,0.870036
2018-02-02,16500.00000000009,1.7140039999999994,0.053822604848063386,0.874632
2018-02-05,20479.999999999927,1.7180999999999993,0.0538999126942553,0.878216
2018-02-06,-34579.999999999825,1.7111839999999994,0.05220679950256666,0.84786
2018-02-07,-80319.99999999988,1.6951199999999993,0.07480673934588705,1.177456
2018-02-08,-69280.00000000012,1.6812639999999994,0.06563062077103896,0.91952
2018-02-09,268400.0000000002,1.7349439999999996,0.06872493867237216,1.10456
2018-02-12,-82960.00000000003,1.7183519999999994,0.07049526523087239,1.121152
2018-02-13,-83439.99999999959,1.7016639999999996,0.07210448126069544,1.135968
2018-02-14,-44000.0,1.6928639999999995,0.07301803334467508,1.144768
2018-02-22,-105360.00000000022,1.6717919999999995,0.07531080421487843,1.16584
2018-02-23,-48720.00000000007,1.6620479999999995,0.07634667590827703,1.175584
2018-02-26,-90320.00000000007,1.6439839999999997,0.07845098249131381,1.193648
2018-02-27,75280.00000000012,1.6590399999999996,0.07680740669302731,1.178592
2018-02-28,49019.999999999985,1.6688439999999995,0.05222652327000008,0.823712
2018-03-01,-35219.99999999989,1.6617999999999995,0.05290759417499098,0.830756
2018-03-02,28420.00000000003,1.6674839999999995,0.059743661708298264,0.996216
2018-03-05,15300.0,1.6705439999999996,0.05945105307013764,0.993156
2018-03-06,-78840.00000000032,1.6547759999999996,0.06097042741736649,1.008924
2018-03-07,53280.00000000011,1.6654319999999996,0.0599404839104809,0.998268
2018-03-08,-57600.0,1.6539119999999996,0.06105451801546881,1.009788
2018-03-09,-30780.000000000247,1.6477559999999993,0.0616562160902464,1.015944
2018-03-12,-12879.999999999607,1.6451799999999994,0.0545583583559246,0.84738
2018-03-13,37459.999999999854,1.6526719999999995,0.059873949579831956,0.939592
2018-03-14,-4879.999999999563,1.6516959999999994,0.05962743749455107,0.935448
2018-03-15,-38200.0,1.6440559999999995,0.06034247008617713,0.942688
2018-03-16,41839.99999999978,1.6524239999999994,0.05928047522911797,0.930888
2018-03-19,-40200.000000000364,1.6443839999999994,0.06003677973028199,0.938592
2018-03-20,1440.0000000001455,1.6446719999999995,0.06013074947466731,0.940128
2018-03-21,6560.000000000036,1.6459839999999994,0.05966522153313764,0.93376
2018-03-22,29479.999999999927,1.6518799999999993,0.05908148291643463,0.927656
2018-03-23,75160.00000000003,1.6669119999999995,0.0556840913017604,0.88288
2018-03-26,-10959.999999999854,1.6647199999999995,0.06713345187178626,1.117584
2018-03-27,-36719.99999999989,1.6573759999999993,0.06787403703203138,1.124928
2018-03-28,135839.9999999998,1.6845439999999994,0.0651665970137913,1.09776
2018-03-29,-123359.99999999994,1.6598719999999996,0.06762159973781114,1.122432
2018-03-30,26759.999999999945,1.6652239999999994,0.0670828669296143,1.11708
2018-04-02,36359.99999999994,1.6724959999999993,0.06635639188374742,1.109808
2018-04-03,-5519.999999999891,1.6713919999999995,0.06646627481763706,1.110912
2018-04-04,12000.0,1.6737919999999993,0.06622758383359464,1.108512
2018-04-09,-26280.000000000382,1.6685359999999994,0.0667512118407994,1.113768
2018-04-10,-124800.0,1.6435759999999995,0.06928356218392094,1.138728
2018-04-11,-1919.999999999618,1.6431919999999995,0.06932312231315636,1.139112
2018-04-12,63480.00000000011,1.6558879999999996,0.06802489057230926,1.126416
2018-04-13,50879.99999999956,1.6660639999999993,0.06699862670341598,1.11624
2018-04-16,118920.00000000044,1.6898479999999996,0.06464818137489292,1.092456
2018-04-17,59159.99999999995,1.7016799999999994,0.06350336138404403,1.080624
2018-04-18,-43979.99999999993,1.6928839999999994,0.05834682116435624,0.940136
2018-04-19,-58580.00000000025,1.6811679999999993,0.059473651651708835,0.951852
2018-04-20,87180.00000000047,1.6986039999999996,0.057614841363849395,0.931952
2018-04-23,-18980.000000000153,1.6948079999999994,0.057940580879958105,0.935748
2018-04-24,-110620.00000000003,1.6726839999999994,0.06009369372816386,0.957872
2018-04-25,24880.000000000153,1.6776599999999995,0.05961875469403814,0.952896
2018-04-26,82639.99999999997,1.6941879999999996,0.05801122425610383,0.936368
2018-04-27,-1000.000000000091,1.6939879999999996,0.05805150921966392,0.936568
2018-05-02,-4000.0000000000455,1.6931879999999995,0.058114657084741936,0.937368
2018-05-03,-25939.99999999992,1.6879999999999993,0.05863123222748817,0.942556
2018-05-04,28859.999999999898,1.6937719999999994,0.058085267674752,0.936784
2018-05-07,-78239.99999999991,1.6781239999999995,0.059616571838553074,0.952432
2018-05-08,-69819.9999999999,1.6641599999999994,0.05744375540813385,0.955956
2018-05-09,-1200.0,1.6639199999999994,0.0,0.0
2018-05-10,0.0,1.6639199999999994,0.0,0.0
2018-05-11,-39360.00000000022,1.6560479999999993,0.0561751833280195,0.930288
2018-05-14,43200.0,1.6646879999999995,0.05640264121565124,0.938928
2018-05-15,3780.000000000109,1.6654439999999995,0.057999668556853325,0.965952
2018-05-16,-53459.99999999994,1.6547519999999993,0.0576064570400882,0.953244
2018-05-17,-35700.00000000013,1.6476119999999994,0.05733097355445337,0.944592
2018-05-18,78960.0000000002,1.6634039999999994,0.05631343918855553,0.93672
2018-05-21,5280.000000000109,1.6644599999999996,0.05634115569013375,0.937776
2018-05-22,-14880.00000000011,1.6614839999999993,0.05626295528575661,0.9348
2018-05-23,-68800.00000000009,1.6477239999999993,0.06284537944461575,0.93964
2018-05-24,-18119.9999999998,1.6440999999999995,0.0696810169697707,0.954688
2018-05-25,-32320.000000000255,1.6376359999999992,0.07322828760481574,1.105216
2018-05-28,-24679.999999999654,1.6326999999999994,0.0587395112390519,0.95904
2018-05-29,33479.99999999984,1.6393959999999994,0.05809115064328572,0.952344
2018-05-30,120840.00000000006,1.6635639999999996,0.06996564003549009,1.073472
2018-05-31,-97439.99999999997,1.6440759999999994,0.05948776090643014,0.93212
2018-06-01,33520.00000000003,1.6507799999999995,0.05880420165012905,0.925416
2018-06-04,-51499.99999999987,1.6404799999999995,0.05980469130986055,0.935716
2018-06-05,-39160.00000000026,1.6326479999999992,0.060619900921692886,0.943548
2018-06-06,6199.999999999591,1.6338879999999993,0.06775220822969509,0.922496
2018-06-07,26880.00000000029,1.6392639999999994,0.06713647100162028,0.91712
2018-06-08,58719.99999999971,1.6510079999999991,0.06580532620072103,0.905376
2018-06-11,-12619.999999999754,1.6484839999999994,0.059133458377515366,0.929692
2018-06-12,-44500.000000000044,1.6395839999999993,0.06002049300310325,0.938592
2018-06-13,45200.00000000009,1.6486239999999994,0.05910237871097354,0.929552
2018-06-14,1179.9999999999727,1.6488599999999993,0.05893162548669993,0.927356
2018-06-15,35319.99999999956,1.6559239999999993,0.0579420794674152,0.915984
2018-06-19,191859.9999999999,1.6942959999999991,0.05418618706530621,0.877612
2018-06-20,-34999.99999999982,1.6872959999999992,0.05486586822940376,0.884612
2018-06-21,59380.000000000015,1.6991719999999992,0.05372122421979649,0.872736
2018-06-22,-33300.00000000009,1.6925119999999994,0.054373759240702604,0.879396
2018-06-25,85220.00000000017,1.7095559999999992,0.052796305005510226,0.862352
2018-06-26,12080.000000000062,1.7119719999999994,0.05261160813377791,0.859936
2018-06-27,109519.9999999999,1.7338759999999993,0.05064029953699113,0.838032
2018-06-28,9620.000000000118,1.7357999999999993,0.05047618389215349,0.836108
2018-06-29,-111179.99999999988,1.7135639999999994,0.0525120275636043,0.858344
2018-07-02,155979.99999999965,1.7447599999999992,0.049745982255439164,0.827148
2018-07-03,-28839.99999999992,1.7389919999999992,0.05026291092770987,0.832916
2018-07-04,36920.00000000007,1.7463759999999993,0.04960072744930074,0.825532
2018-07-05,39759.999999999985,1.7543279999999992,0.0488472851143002,0.81758
2018-07-06,-43960.00000000004,1.745535999999999,0.04960974737845569,0.826372
2018-07-09,-126640.0000000002,1.720207999999999,0.05187767990847621,0.8517
2018-07-10,-2339.999999999918,1.7197399999999992,0.05193157105143803,0.852168
2018-07-11,75539.99999999983,1.734847999999999,0.05055949570221716,0.83706
2018-07-12,-110899.99999999974,1.7126679999999994,0.052588546057963384,0.85924
2018-07-13,-3659.9999999998545,1.7119359999999992,0.05265967886649971,0.859972
2018-07-16,21999.99999999968,1.7163359999999992,0.05227214251754903,0.855572
2018-07-17,22100.000000000364,1.7207559999999993,0.05187412974297346,0.851152
2018-07-18,21059.999999999716,1.7249679999999992,0.051491598684729245,0.84694
2018-07-19,-2180.0000000002456,1.724531999999999,0.05140622499321557,0.845976
2018-07-20,-104799.99999999945,1.7035719999999992,0.05316884757439077,0.864608
2018-07-23,-46339.99999999997,1.6943039999999991,0.06669358037282569,1.046936
2018-07-24,-11500.0,1.6920039999999992,0.0,0.0
2018-07-25,-36959.99999999981,1.684611999999999,0.06371010060476837,1.073268
2018-07-26,-63840.00000000019,1.6718439999999992,0.06343295187828532,1.0605
2018-07-27,9659.999999999809,1.6737759999999993,0.06347516035598554,1.062432
2018-07-30,26459.99999999981,1.6790679999999991,0.06359027746344997,1.067724
2018-07-31,11340.000000000191,1.681335999999999,0.0636393915314964,1.069992
2018-08-01,-131459.9999999998,1.6550439999999993,0.06306176754213184,1.0437
2018-08-02,-105000.0,1.6340439999999992,0.06258705395937933,1.0227
2018-08-03,92340.00000000047,1.6525119999999993,0.06410574930772063,0.981304
2018-08-06,50299.99999999968,1.662571999999999,0.06304328474195407,0.971244
2018-08-07,-138300.0,1.634911999999999,0.06592208020982172,0.998904
2018-08-08,78040.00000000015,1.6505199999999993,0.06428170515958609,0.983296
2018-08-09,-121719.99999999999,1.6261759999999992,0.06686065960880007,1.00764
2018-08-10,-24220.000000000073,1.621331999999999,0.0673945126599611,1.012484
2018-08-13,13320.000000000164,1.623995999999999,0.06707972187123616,1.009276
2018-08-14,12719.999999999443,1.626539999999999,0.06650293260540784,1.001764
2018-08-15,127759.99999999999,1.6520919999999992,0.06381363749718542,0.976212
2018-08-16,5980.000000000153,1.653287999999999,0.06376137732808806,1.015596
2018-08-17,76239.99999999987,1.6685359999999991,0.062225328072034444,1.000348
2018-08-20,-75480.00000000003,1.653439999999999,0.06372851751499907,1.015444
2018-08-21,-72119.99999999985,1.639015999999999,0.06518960156581757,1.029868
2018-08-22,3199.9999999998636,1.6396559999999991,0.0651158535692853,1.029228
2018-08-23,-10279.999999999882,1.637599999999999,0.06533302393746951,1.031284
2018-08-24,-18480.00000000002,1.633903999999999,0.06569879258512132,1.03498
2018-08-27,-130920.00000000009,1.6077199999999991,0.06748802030204268,1.006116
2018-08-28,-3419.999999999891,1.607035999999999,0.07372778207831067,0.98736
2018-08-29,18600.000000000364,1.6107559999999992,0.07328037269456085,0.98364
2018-08-30,72199.99999999983,1.6251959999999992,0.07156306070160157,0.9692
2018-08-31,62600.000000000364,1.6377159999999993,0.07009860073419326,0.95668
2018-09-03,-36200.00000000073,1.630475999999999,0.07094271856807464,0.96392
2018-09-04,-38000.0,1.622875999999999,0.07183691175419445,0.97152
2018-09-05,72600.00000000036,1.6373959999999992,0.07013575213326528,0.957
2018-09-06,17199.999999999818,1.6408359999999993,0.06973713399754762,0.95356
2018-09-07,-32639.99999999946,1.6343079999999992,0.06491995388874071,1.022872
2018-09-10,65299.99999999968,1.6473679999999993,0.06357326353310253,1.009812
2018-09-11,20220.000000000116,1.6514119999999992,0.06317764434314395,1.005768
2018-09-12,29860.000000000036,1.657383999999999,0.0625803072794235,0.999796
2018-09-13,-65300.0,1.6443239999999992,0.06389251753304097,1.012856
2018-09-14,4380.000000000018,1.645199999999999,0.06377432530999273,1.01198
2018-09-17,54299.99999999987,1.6560599999999992,0.06267541031122063,1.00112
2018-09-18,-112819.9999999999,1.6334959999999992,0.06496001214572919,1.023684
2018-09-19,-51180.000000000065,1.6232599999999993,0.06471436491997587,0.974732
2018-09-20,-23839.999999999374,1.6184919999999994,0.06990803785251953,0.94288
2018-09-21,-113400.00000000055,1.5958119999999991,0.0726070489506283,0.96556
2018-09-25,27280.00000000002,1.6012679999999992,0.06372649675132461,1.020432
2018-09-26,62280.00000000011,1.613723999999999,0.06400648438022861,1.032888
2018-09-27,-15599.999999999454,1.6106039999999993,0.06393675912887342,1.029768
2018-09-28,51959.99999999967,1.6209959999999992,0.06416795599742384,1.04016
2018-10-08,-247200.0,1.5715559999999993,0.06304070615364649,0.99072
2018-10-09,37720.00000000007,1.579099999999999,0.06610327401684507,0.96984
2018-10-10,-4559.9999999998545,1.578187999999999,0.06624427508002852,0.971232
2018-10-11,16080.000000000116,1.5814039999999991,0.06207263924967942,0.913488
2018-10-12,-22440.00000000005,1.5769159999999993,0.06215113550753499,0.911796
2018-10-15,77460.0,1.5924079999999992,0.0604843984707437,0.896304
2018-10-16,38160.00000000022,1.600039999999999,0.07515202119947004,1.136856
2018-10-17,-21580.000000000564,1.595723999999999,0.07564601397234114,1.141172
2018-10-18,130060.00000000022,1.621735999999999,0.07274249322947758,1.11516
2018-10-19,-139459.99999999983,1.593843999999999,0.0756790752419936,1.14092
2018-10-22,-292100.0000000006,1.535423999999999,0.08261051019132182,1.19934
2018-10-23,123380.00000000012,1.560099999999999,0.07789531440292295,1.012704
2018-10-24,11760.000000000218,1.562451999999999,0.07759741739266236,1.0103520000000001
2018-10-25,-19439.99999999978,1.558563999999999,0.07809034470191797,1.01424
2018-10-26,31439.99999999978,1.564851999999999,0.07729436393984869,1.0079520000000002
2018-10-29,52560.00000000022,1.575363999999999,0.07597786924164833,0.99744
2018-10-30,-49440.00000000019,1.565475999999999,0.07739585915082703,1.14458
2018-10-31,-73859.99999999985,1.550703999999999,0.07915011504452177,1.159352
2018-11-01,-36479.999999999796,1.543407999999999,0.07987197163679344,1.164584
2018-11-02,-220280.00000000038,1.499351999999999,0.08532518047796654,1.20864
2018-11-05,37340.00000000051,1.506819999999999,0.08437286470845894,1.059456
2018-11-06,-6720.000000000437,1.505475999999999,0.08455531672374723,1.0608
2018-11-07,-239.99999999978172,1.5054279999999989,0.0,0.0
2018-11-08,0.0,1.5054279999999989,0.0,0.0
2018-11-09,0.0,1.5054279999999989,0.0,0.0
2018-11-12,0.0,1.5054279999999989,0.0,0.0
2018-11-13,0.0,1.5054279999999989,0.0,0.0
2018-11-14,-23199.999999999818,1.500787999999999,0.07253149678702127,0.90712
2018-11-15,83399.99999999964,1.5174679999999987,0.07305327031607921,0.9238
2018-11-16,28800.000000000182,1.5232279999999987,0.07323079670279176,0.92956
2018-11-19,11599.999999999454,1.5255479999999988,0.07330192167011466,0.93188
2018-11-20,-144959.9999999995,1.4965559999999987,0.08226167280075058,1.122612
2018-11-21,8459.999999999809,1.498247999999999,0.08230765534143884,1.124304
2018-11-22,-16919.99999999989,1.4948639999999989,0.08224641171370779,1.12092
2018-11-23,-185100.0000000003,1.4578439999999988,0.08147489031748259,1.0838999999999999
2018-11-26,13800.000000000273,1.4606039999999987,0.0,0.0
2018-11-27,0.0,1.4606039999999987,0.0,0.0
2018-11-28,-49559.99999999981,1.4506919999999988,0.070155760147571,1.0177439999999998
2018-11-29,23100.0,1.4553119999999988,0.06961558758534257,1.013124
2018-11-30,-42420.000000000575,1.4468279999999987,0.07061019001567574,1.021608
2018-12-03,-118440.00000000019,1.4231399999999987,0.0734499768118387,1.0452960000000002
2018-12-04,7140.000000000189,1.4245679999999987,0.0,0.0
2018-12-05,0.0,1.4245679999999987,0.0,0.0
2018-12-06,0.0,1.4245679999999987,0.0,0.0
2018-12-07,0.0,1.4245679999999987,0.0,0.0
2018-12-10,0.0,1.4245679999999987,0.0,0.0
2018-12-11,0.0,1.4245679999999987,0.0,0.0
2018-12-12,0.0,1.4245679999999987,0.0,0.0
2018-12-13,0.0,1.4245679999999987,0.0,0.0
2018-12-14,0.0,1.4245679999999987,0.0,0.0
2018-12-17,-1439.9999999997817,1.4242799999999987,0.08737787513691134,1.0370879999999998
2018-12-18,31200.0,1.4305199999999987,0.08647328244274814,1.0308479999999998
2018-12-19,72299.99999999964,1.4449799999999986,0.08337549308640958,1.13698
2018-12-20,33040.00000000001,1.4515879999999985,0.08236700771844362,1.127908
2018-12-21,51620.000000000255,1.4619119999999988,0.08100733833500245,1.11696
2018-12-24,-20380.00000000011,1.4578359999999986,0.08156719960269887,1.121036
2018-12-25,43599.99999999991,1.4665559999999986,0.08042237732483458,1.112316
2018-12-26,26840.000000000007,1.4719239999999987,0.07975765053086988,1.106948
2018-12-27,26019.99999999989,1.4771279999999987,0.07906153021268306,1.101744
2018-12-28,5020.000000000255,1.4781319999999987,0.0789284312903043,1.10074
2019-01-02,52399.99999999972,1.4886119999999987,0.07764338860629909,1.09026
2019-01-03,-2099.9999999998636,1.4881919999999986,0.0776825570894079,1.09068
2019-01-04,-139140.00000000006,1.4603639999999987,0.08120117997978593,1.118508
2019-01-07,-25280.000000000156,1.4553079999999987,0.08189755020930285,1.123564
2019-01-08,1760.0000000002638,1.4556599999999988,0.08185598285313885,1.123212
2019-01-09,-35460.00000000022,1.4485679999999987,0.08274963964411756,1.130304
2019-01-10,-6659.999999999809,1.4472359999999989,0.08292181786522729,1.131636
2019-01-11,-46360.000000000175,1.4379639999999987,0.08413979765835591,1.140908
2019-01-14,42959.99999999967,1.4465559999999986,0.06417781268060144,0.928368
2019-01-15,-87119.99999999988,1.4291319999999987,0.06617947117551079,0.945792
2019-01-16,8040.000000000327,1.4307399999999988,0.0,0.0
2019-01-17,0.0,1.4307399999999988,0.0,0.0
2019-01-18,0.0,1.4307399999999988,0.0,0.0
2019-01-21,30119.999999999618,1.4367639999999988,0.0672728436959724,0.966552
2019-01-22,-74280.00000000016,1.4219079999999986,0.08600522677979174,1.154208
2019-01-23,-10199.999999999454,1.4198679999999988,0.08599458541216515,1.152168
2019-01-24,42540.00000000001,1.4283759999999988,0.08610959579270451,1.160676
2019-01-25,30799.999999999818,1.4345359999999987,0.08614604304109488,1.166836
2019-01-28,-10420.000000000073,1.4324519999999987,0.08610533546673822,1.164752
2019-01-29,6119.999999999982,1.4336759999999988,0.08606229022456963,1.165976
2019-01-30,-32860.00000000013,1.4271039999999988,0.06790647352960967,0.969096
2019-01-31,63120.00000000044,1.4397279999999988,0.06818787993287627,0.98172
2019-02-01,54959.99999999967,1.4507199999999987,0.06842891805448334,0.992712
2019-02-11,42959.99999999994,1.4593119999999988,0.0686888067801814,1.002384
2019-02-12,28820.000000000073,1.4650759999999987,0.08739838752392375,1.209592
2019-02-13,122700.00000000015,1.4896159999999987,0.08769298933416404,1.234132
2019-02-14,9980.000000000064,1.4916119999999988,0.08784965527228267,1.237784
2019-02-15,-102199.99999999977,1.4711719999999988,0.08764342986408123,1.217344
2019-02-18,179019.9999999998,1.506975999999999,0.08812217314675223,1.253148
2019-02-19,-17340.000000000055,1.5035079999999987,0.08807562048223229,1.24968
2019-02-20,14420.00000000003,1.5063919999999988,0.08809101482217119,1.252564
2019-02-21,-6499.999999999864,1.505091999999999,0.08809135919930483,1.251264
2019-02-22,160980.0,1.5372879999999989,0.08848939170799493,1.28346
2019-02-25,464419.9999999997,1.6301719999999988,0.08945755417219785,1.376344
2019-02-26,-161259.99999999983,1.597919999999999,0.08918489035746477,1.344092
2019-02-27,-20900.000000000455,1.5937399999999986,0.0891105450073413,1.339912
2019-02-28,-859.9999999992178,1.593567999999999,0.0891266390891384,1.33974
2019-03-01,125019.99999999948,1.6185719999999988,0.0893406780791958,1.364744
2019-03-04,56899.999999999956,1.6299519999999987,0.08947713797706931,1.376124
2019-03-05,84080.00000000038,1.646767999999999,0.08973460742496825,1.39294
2019-03-06,57639.9999999996,1.6582959999999987,0.08990361190040867,1.404468
2019-03-07,-45139.99999999974,1.6492679999999988,0.08988947824125618,1.39544
2019-03-08,-232280.00000000038,1.6028119999999988,0.08945069041160167,1.348984
2019-03-11,102960.0000000005,1.623403999999999,0.08973470559392493,1.369576
2019-03-12,65239.999999999825,1.636451999999999,0.08991178476362283,1.382624
2019-03-13,-65259.99999999981,1.6233999999999988,0.08969013182210182,1.369572
2019-03-14,-57059.99999999994,1.6119879999999989,0.0895039913448488,1.35816
2019-03-15,75420.00000000003,1.6270719999999987,0.08974216260866151,1.37488
2019-03-18,205160.00000000006,1.668103999999999,0.09017020521502263,1.415912
2019-03-19,-51660.00000000036,1.6577719999999987,0.0900834614168897,1.40558
2019-03-20,-359.99999999971806,1.6576999999999988,0.09006623635157152,1.405508
2019-03-21,10619.9999999998,1.6598239999999989,0.09014777470382407,1.407632
2019-03-22,35960.00000000013,1.667015999999999,0.09025727407535386,1.414824
2019-03-25,-176719.99999999988,1.631671999999999,0.0899554322192206,1.37948
2019-03-26,-61900.00000000009,1.6192919999999988,0.059251080101674104,0.87372
2019-03-27,26040.000000000146,1.624499999999999,0.05941481071098804,0.878928
2019-03-28,-34119.99999999989,1.617675999999999,0.059171403915246355,0.872104
2019-03-29,178959.99999999948,1.6534679999999988,0.060264026881681455,0.907896
2019-04-01,113380.00000000029,1.676143999999999,0.05148531391097666,0.81684
2019-04-02,-6760.000000000036,1.6747919999999987,0.05143688290844479,0.815488
2019-04-03,52400.00000000028,1.685271999999999,0.05177780204026416,0.825968
2019-04-04,48359.99999999981,1.6949439999999991,0.05207846394925146,0.83564
2019-04-08,-25060.000000000175,1.6899319999999989,0.0518976148152707,0.830628
2019-04-09,19860.00000000008,1.693903999999999,0.05202741123463906,0.8346
2019-04-10,7080.000000000109,1.6953199999999988,0.052058985914163726,0.836016
2019-04-11,-74780.00000000015,1.680363999999999,0.05158582307166784,0.82106
2019-04-12,-9100.0,1.678543999999999,0.051523796814382024,0.81924
2019-04-15,-31819.9999999998,1.6721799999999991,0.051295195493308174,0.812876
2019-04-16,134199.9999999999,1.699019999999999,0.05213532506974612,0.839716
2019-04-17,-10680.000000000064,1.696883999999999,0.05208129724836822,0.83758
2019-04-18,-11520.000000000073,1.6945799999999989,0.05201274652126194,0.835276
2019-04-19,47199.999999999956,1.704019999999999,0.052295301698336905,0.844916
2019-04-22,-94879.99999999993,1.685043999999999,0.0517111719337893,0.82594
2019-04-23,-20819.9999999998,1.6808799999999988,0.051532435390985704,0.821776
2019-04-24,-11520.000000000255,1.6785759999999987,0.060704311273365084,1.018968
2019-04-25,-81300.00000000015,1.6623159999999988,0.06031993916920733,1.002708
2019-04-26,-43259.999999999534,1.6536639999999991,0.05075405886564626,0.7963
2019-04-29,89959.99999999968,1.671655999999999,0.061907043075848184,0.950732
2019-04-30,3480.0000000000637,1.6723519999999987,0.06201129905665796,0.952772
2019-05-06,46440.00000000003,1.681639999999999,0.05743607430841326,0.888908
2019-05-07,-20279.999999999975,1.6775839999999989,0.05464429799044344,0.838208
2019-05-08,43240.00000000023,1.6862319999999988,0.05382006746402634,0.82956
2019-05-09,52119.999999999796,1.6966559999999988,0.05284635188276236,0.819136
2019-05-10,-138120.0,1.6690319999999987,0.05554405188156971,0.84676
2019-05-13,64120.000000000255,1.681855999999999,0.05428231667871688,0.833936
2019-05-14,10999.999999999727,1.6840559999999989,0.054081146945232264,0.831736
